PPG,Type_1
0,0.478063
0,0.458766
0,0.435854
0,0.419918
0,0.401380
0,0.379820
0,0.355244
0,0.328085
0,0.299176
0,0.269679
0,0.240993
0,0.214646
0,0.192170
0,0.174989
0,0.164309
0,0.161035
0,0.165707
0,0.178464
0,0.199045
0,0.226813
0,0.260805
0,0.299800
0,0.342413
0,0.387180
0,0.432651
0,0.477472
0,0.520454
0,0.560619
0,0.597225
0,0.629782
0,0.658035
0,0.681946
0,0.701664
0,0.717490
0,0.729837
0,0.739196
0,0.746099
0,0.751085
0,0.754672
0,0.757323
0,0.759427
0,0.761276
0,0.763050
0,0.764821
0,0.766548
0,0.768097
0,0.769260
0,0.769783
0,0.769396
0,0.767845
0,0.764918
0,0.760465
0,0.754418
0,0.746789
0,0.737673
0,0.727232
0,0.715681
0,0.703269
0,0.690252
0,0.676881
0,0.663377
0,0.649924
0,0.636662
0,0.623678
0,0.611014
0,0.598667
0,0.586600
0,0.574746
0,0.563019
0,0.551325
0,0.539574
0,0.527687
0,0.515608
0,0.503309
0,0.490794
0,0.478096
0,0.465272
0,0.452388
0,0.439508
0,0.426672
0,0.413886
0,0.401103
0,0.388223
0,0.375092
0,0.361517
0,0.347286
0,0.332203
0,0.316122
0,0.298988
0,0.280867
0,0.261976
0,0.242696
0,0.223566
0,0.205272
0,0.188605
0,0.174419
0,0.163575
0,0.156873
0,0.155000
0,0.158463
0,0.167552
0,0.182309
0,0.202516
0,0.227703
0,0.257183
0,0.290095
0,0.325461
0,0.362252
0,0.399453
0,0.436122
0,0.471438
0,0.504732
0,0.535514
0,0.563468
0,0.588453
0,0.610478
0,0.629681
0,0.646299
0,0.660639
0,0.673042
0,0.683863
0,0.693436
0,0.702064
0,0.709994
0,0.717413
0,0.724445
0,0.731147
0,0.737521
0,0.743521
0,0.749069
0,0.754059
0,0.758378
0,0.761908
0,0.764538
0,0.766170
0,0.766720
0,0.766123
0,0.764334
0,0.761327
0,0.757095
0,0.751649
0,0.745019
0,0.737255
0,0.728422
0,0.718607
0,0.707913
0,0.696461
0,0.684385
0,0.671825
0,0.658924
0,0.645819
0,0.632632
0,0.619466
0,0.606397
0,0.593476
0,0.580724
0,0.568137
0,0.555688
0,0.543333
0,0.531018
0,0.518680
0,0.506253
0,0.493670
0,0.480855
0,0.467729
0,0.454197
0,0.440156
0,0.425487
0,0.410062
0,0.393758
0,0.376466
0,0.358112
0,0.338681
0,0.318239
0,0.296958
0,0.275127
0,0.253169
0,0.231636
0,0.211198
0,0.192618
0,0.176712
0,0.164302
0,0.156159
0,0.152946
0,0.155161
0,0.163092
0,0.176780
0,0.196004
0,0.220286
0,0.248910
0,0.280969
0,0.315422
0,0.351162
0,0.387091
0,0.422190
0,0.455583
0,0.486578
0,0.514707
0,0.539726
0,0.561612
0,0.580538
0,0.596828
0,0.610918
0,0.623297
0,0.634463
0,0.644875
0,0.654925
0,0.664905
0,0.675002
0,0.685287
0,0.695729
0,0.706204
0,0.716517
0,0.726418
0,0.735630
0,0.743870
0,0.750867
0,0.756380
0,0.760217
0,0.762242
0,0.762383
0,0.760642
0,0.757088
0,0.751857
0,0.745144
0,0.737187
0,0.728252
0,0.718615
0,0.708539
0,0.698257
0,0.687957
0,0.677765
0,0.667742
0,0.657885
0,0.648129
0,0.638365
0,0.628449
0,0.618228
0,0.607553
0,0.596303
0,0.584394
0,0.571789
0,0.558501
0,0.544587
0,0.530140
0,0.515272
0,0.500104
0,0.484742
0,0.469272
0,0.453742
0,0.438158
0,0.422478
0,0.406619
0,0.390457
0,0.373848
0,0.356645
0,0.338722
0,0.320005
0,0.300498
0,0.280310
0,0.259680
0,0.238981
0,0.218727
0,0.199553
0,0.182195
0,0.167442
0,0.156092
0,0.148888
0,0.146469
0,0.149307
0,0.157669
0,0.171587
0,0.190846
0,0.214993
0,0.243363
0,0.275123
0,0.309326
0,0.344970
0,0.381064
0,0.416680
0,0.451004
0,0.483370
0,0.513287
0,0.540442
0,0.564703
0,0.586102
0,0.604809
0,0.621107
0,0.635353
0,0.647944
0,0.659281
0,0.669736
0,0.679624
0,0.689179
0,0.698543
0,0.707759
0,0.716773
0,0.725450
0,0.733591
0,0.740956
0,0.747299
0,0.752385
0,0.756025
0,0.758090
0,0.758523
0,0.757345
0,0.754648
0,0.750587
0,0.745355
0,0.739171
0,0.732252
0,0.724798
0,0.716974
0,0.708900
0,0.700648
0,0.692241
0,0.683661
0,0.674861
0,0.665779
0,0.656359
0,0.646559
0,0.636375
0,0.625843
0,0.615048
0,0.604116
0,0.593206
0,0.582494
0,0.572149
0,0.562311
0,0.553070
0,0.544438
0,0.536342
0,0.528613
0,0.520988
0,0.513121
0,0.504609
0,0.495016
0,0.483907
0,0.470891
0,0.455649
0,0.437970
0,0.417779
0,0.395153
0,0.370332
0,0.343726
0,0.315900
0,0.287570
0,0.259573
0,0.232842
0,0.208369
0,0.187162
0,0.170195
0,0.158353
0,0.152378
0,0.152815
0,0.159961
0,0.173833
0,0.194149
0,0.220333
0,0.251537
0,0.286697
0,0.324590
0,0.363922
0,0.403405
0,0.441843
0,0.478199
0,0.511655
0,0.541648
0,0.567880
0,0.590316
0,0.609156
0,0.624793
0,0.637757
0,0.648658
0,0.658126
0,0.666750
0,0.675039
0,0.683376
0,0.692003
0,0.701008
0,0.710333
0,0.719788
0,0.729082
0,0.737857
0,0.745724
0,0.752306
0,0.757271
0,0.760361
0,0.761416
0,0.760380
0,0.757304
0,0.752334
0,0.745691
0,0.737650
0,0.728512
0,0.718576
0,0.708121
0,0.697385
0,0.686558
0,0.675779
0,0.665135
0,0.654667
0,0.644379
0,0.634244
0,0.624209
0,0.614207
0,0.604157
0,0.593974
0,0.583578
0,0.572898
0,0.561879
0,0.550494
0,0.538743
0,0.526655
0,0.514287
0,0.501715
0,0.489021
0,0.476281
0,0.463543
0,0.450816
0,0.438053
0,0.425143
0,0.411912
0,0.398132
0,0.383542
0,0.367873
0,0.350889
0,0.332425
0,0.312430
0,0.291010
0,0.268452
0,0.245249
0,0.222093
0,0.199864
0,0.179584
0,0.162361
0,0.149309
0,0.141468
0,0.139713
0,0.144676
0,0.156682
0,0.175701
0,0.201340
0,0.232852
0,0.269182
0,0.309038
0,0.350978
0,0.393511
0,0.435197
0,0.474748
0,0.511101
0,0.543475
0,0.571407
0,0.594747
0,0.613643
0,0.628491
0,0.639875
0,0.648501
0,0.655121
0,0.660469
0,0.665208
0,0.669879
0,0.674884
0,0.680465
0,0.686713
0,0.693585
0,0.700919
0,0.708473
0,0.715954
0,0.723046
0,0.729446
0,0.734878
0,0.739120
0,0.742008
0,0.743447
0,0.743401
0,0.741895
0,0.738998
0,0.734810
0,0.729447
0,0.723026
0,0.715654
0,0.707414
0,0.698361
0,0.688527
0,0.677917
0,0.666526
0,0.654347
0,0.641389
0,0.627685
0,0.613307
0,0.598369
0,0.583027
0,0.567471
0,0.551911
0,0.536561
0,0.521613
0,0.507221
0,0.493477
0,0.480408
0,0.467958
0,0.456001
0,0.444337
0,0.432715
0,0.420847
0,0.408428
0,0.395161
0,0.380781
0,0.365078
0,0.347923
0,0.329283
0,0.309247
0,0.288030
0,0.265989
0,0.243613
0,0.221522
0,0.200443
0,0.181185
0,0.164600
0,0.151541
0,0.142811
0,0.139110
0,0.140989
0,0.148798
0,0.162657
0,0.182431
0,0.207724
0,0.237896
0,0.272092
0,0.309292
0,0.348374
0,0.388179
0,0.427588
0,0.465581
0,0.501293
0,0.534057
0,0.563421
0,0.589157
0,0.611246
0,0.629858
0,0.645309
0,0.658029
0,0.668513
0,0.677279
0,0.684829
0,0.691615
0,0.698014
0,0.704302
0,0.710650
0,0.717119
0,0.723668
0,0.730169
0,0.736428
0,0.742208
0,0.747261
0,0.751346
0,0.754254
0,0.755827
0,0.755965
0,0.754631
0,0.751851
0,0.747711
0,0.742344
0,0.735926
0,0.728657
0,0.720751
0,0.712426
0,0.703880
0,0.695289
0,0.686789
0,0.678471
0,0.670382
0,0.662522
0,0.654855
0,0.647322
0,0.639848
0,0.632360
0,0.624798
0,0.617118
0,0.609294
0,0.601315
0,0.593177
0,0.584866
0,0.576349
0,0.567555
0,0.558367
0,0.548611
0,0.538054
0,0.526413
0,0.513361
0,0.498555
0,0.481662
0,0.462398
0,0.440564
0,0.416087
0,0.389056
0,0.359751
0,0.328660
0,0.296480
0,0.264102
0,0.232587
0,0.203111
0,0.176916
0,0.155232
0,0.139205
0,0.129821
0,0.127836
0,0.133715
0,0.147587
0,0.169228
0,0.198062
0,0.233194
0,0.273456
0,0.317489
0,0.363817
0,0.410938
0,0.457410
0,0.501921
0,0.543350
0,0.580808
0,0.613657
0,0.641525
0,0.664287
0,0.682054
0,0.695138
0,0.704021
0,0.709314
0,0.711714
0,0.711961
0,0.710797
0,0.708921
0,0.706957
0,0.705418
0,0.704681
0,0.704973
0,0.706365
0,0.708774
0,0.711978
0,0.715644
0,0.719361
0,0.722681
0,0.725159
0,0.726396
0,0.726070
0,0.723966
0,0.719982
0,0.714131
0,0.706531
0,0.697378
0,0.686920
0,0.675428
0,0.663169
0,0.650383
0,0.637269
0,0.623978
0,0.610610
0,0.597225
0,0.583845
0,0.570471
0,0.557094
0,0.543701
0,0.530284
0,0.516844
0,0.503393
0,0.489948
0,0.476531
0,0.463160
0,0.449847
0,0.436590
0,0.423363
0,0.410113
0,0.396751
0,0.383154
0,0.369162
0,0.354594
0,0.339266
0,0.323013
0,0.305726
0,0.287382
0,0.268076
0,0.248046
0,0.227692
0,0.207574
0,0.188402
0,0.171011
0,0.156315
0,0.145252
0,0.138718
0,0.137497
0,0.142198
0,0.153193
0,0.170577
0,0.194150
0,0.223414
0,0.257599
0,0.295713
0,0.336607
0,0.379043
0,0.421781
0,0.463649
0,0.503613
0,0.540821
0,0.574644
0,0.604682
0,0.630765
0,0.652930
0,0.671391
0,0.686499
0,0.698697
0,0.708476
0,0.716335
0,0.722739
0,0.728094
0,0.732723
0,0.736855
0,0.740624
0,0.744074
0,0.747174
0,0.749837
0,0.751939
0,0.753341
0,0.753910
0,0.753530
0,0.752118
0,0.749625
0,0.746042
0,0.741395
0,0.735740
0,0.729157
0,0.721744
0,0.713606
0,0.704850
0,0.695576
0,0.685876
0,0.675823
0,0.665471
0,0.654853
0,0.643979
0,0.632839
0,0.621408
0,0.609652
0,0.597533
0,0.585024
0,0.572109
0,0.558798
0,0.545126
0,0.531155
0,0.516972
0,0.502681
0,0.488390
0,0.474199
0,0.460186
0,0.446393
0,0.432813
0,0.419386
0,0.405995
0,0.392477
0,0.378629
0,0.364232
0,0.349072
0,0.332972
0,0.315814
0,0.297576
0,0.278351
0,0.258366
0,0.237998
0,0.217768
0,0.198335
0,0.180472
0,0.165024
0,0.152867
0,0.144848
0,0.141724
0,0.144102
0,0.152380
0,0.166708
0,0.186959
0,0.212722
0,0.243316
0,0.277828
0,0.315169
0,0.354139
0,0.393504
0,0.432072
0,0.468759
0,0.502652
0,0.533053
0,0.559506
0,0.581811
0,0.600018
0,0.614405
0,0.625451
0,0.633782
0,0.640121
0,0.645229
0,0.649839
0,0.654603
0,0.660046
0,0.666530
0,0.674243
0,0.683198
0,0.693251
0,0.704131
0,0.715474
0,0.726865
0,0.737867
0,0.748064
0,0.757078
0,0.764594
0,0.770370
0,0.774244
0,0.776129
0,0.776013
0,0.773944
0,0.770024
0,0.764396
0,0.757232
0,0.748726
0,0.739083
0,0.728514
0,0.717230
0,0.705439
0,0.693336
0,0.681098
0,0.668880
0,0.656803
0,0.644944
0,0.633333
0,0.621945
0,0.610694
0,0.599445
0,0.588014
0,0.576184
0,0.563714
0,0.550359
0,0.535877
0,0.520047
0,0.502672
0,0.483595
0,0.462714
0,0.439990
0,0.415474
0,0.389324
0,0.361833
0,0.333442
0,0.304757
0,0.276551
0,0.249745
0,0.225381
0,0.204570
0,0.188428
0,0.177995
0,0.174158
0,0.177570
0,0.188585
0,0.207214
0,0.233103
0,0.265541
0,0.303498
0,0.345682
0,0.390622
0,0.436759
0,0.482546
0,0.526535
0,0.567471
0,0.604349
0,0.636463
0,0.663432
0,0.685194
0,0.701984
0,0.714288
0,0.722785
0,0.728273
0,0.731603
0,0.733601
0,0.735007
0,0.736426
0,0.738294
0,0.740860
0,0.744187
0,0.748171
0,0.752570
0,0.757041
0,0.761190
0,0.764610
0,0.766923
0,0.767813
0,0.767048
0,0.764490
0,0.760097
0,0.753913
0,0.746054
0,0.736689
0,0.726020
0,0.714266
0,0.701645
0,0.688367
0,0.674621
0,0.660576
0,0.646456
0,0.632449
0,0.618602
0,0.604943
0,0.591483
0,0.578142
0,0.564839
0,0.551607
0,0.538471
0,0.525449
0,0.512558
0,0.499812
0,0.487218
0,0.474781
0,0.462497
0,0.450352
0,0.438318
0,0.426353
0,0.414392
0,0.402351
0,0.390123
0,0.377579
0,0.364571
0,0.350947
0,0.336555
0,0.321262
0,0.304977
0,0.287665
0,0.269370
0,0.250234
0,0.230511
0,0.210570
0,0.190900
0,0.172094
0,0.154834
0,0.139852
0,0.127899
0,0.119694
0,0.115882
0,0.116990
0,0.123389
0,0.135271
0,0.152630
0,0.175265
0,0.202783
0,0.234623
0,0.270079
0,0.308331
0,0.348477
0,0.389563
0,0.430615
0,0.470671
0,0.508809
0,0.544182
0,0.576048
0,0.603803
0,0.627008
0,0.645411
0,0.658958
0,0.667781
0,0.672176
0,0.672567
0,0.669443
0,0.663309
0,0.654616
0,0.643719
0,0.630838
0,0.616036
0,0.599235
0,0.580233
0,0.558765
0,0.534561
0,0.507422
0,0.477303
0,0.444380
0,0.409110
0,0.372270
0,0.334963
0,0.298604
0,0.264862
0,0.235587
0,0.212695
0,0.198040
0,0.193273
0,0.199699
0,0.218144
0,0.248849
0,0.291402
0,0.344721
0,0.407089
0,0.476250
0,0.549554
0,0.624137
0,0.697126
0,0.765833
0,0.827934
0,0.881598
0,0.925575
0,0.959218
0,0.982463
0,0.995766
0,1.000000
0,0.996340
0,0.986142
0,0.970818
0,0.951732
0,0.930105
0,0.906951
0,0.883384
0,0.860138
0,0.837360
0,0.814968
0,0.792689
0,0.769780
0,0.745559
0,0.719690
0,0.691942
0,0.662247
0,0.630752
0,0.597848
0,0.564172
0,0.530585
0,0.498124
0,0.467933
0,0.441182
0,0.418987
0,0.402326
0,0.391981
0,0.388491
0,0.392125
0,0.402877
0,0.420463
0,0.444339
0,0.473716
0,0.507584
0,0.544745
0,0.583856
0,0.623478
0,0.662139
0,0.698401
0,0.730921
0,0.758514
0,0.780197
0,0.795223
0,0.803089
0,0.803535
0,0.796521
0,0.782203
0,0.760894
0,0.733036
0,0.699169
0,0.659915
0,0.615956
0,0.568035
0,0.516945
0,0.463535
0,0.408701
0,0.353391
0,0.298593
0,0.245337
0,0.194682
0,0.147705
0,0.105484
0,0.069077
0,0.039487
0,0.017627
0,0.004270
0,0.000000
0,0.005161
0,0.019811
0,0.043686
0,0.076182
0,0.116363
0,0.162983
0,0.214542
0,0.269359
0,0.325659
0,0.381678
0,0.435757
0,0.486437
0,0.532534
0,0.573193
0,0.607911
0,0.636534
0,0.659222
0,0.676394
0,0.688652
0,0.696690
0,0.701207
0,0.702824
0,0.702002
0,0.698999
0,0.693831
0,0.686273
0,0.675889
0,0.662083
0,0.644181
0,0.621527
0,0.593585
0,0.560043
0,0.520895
0,0.476503
0,0.427629
0,0.375425
0,0.321396
0,0.267332
0,0.215212
0,0.167102
0,0.125043
0,0.090939
0,0.066454
0,0.052915
0,0.051232
0,0.061827
0,0.084597
0,0.118889
0,0.163516
0,0.216806
0,0.276682
0,0.340786
0,0.406620
0,0.471699
0,0.533708
0,0.590636
0,0.640886
0,0.683345
0,0.717408
0,0.742977
0,0.760405
0,0.770432
0,0.774089
0,0.772591
0,0.767236
0,0.759289
0,0.749893
0,0.739976
0,0.730191
0,0.720874
0,0.712025
0,0.703332
0,0.694215
0,0.683906
0,0.671539
0,0.656271
0,0.637386
0,0.614405
0,0.587176
0,0.555925
0,0.521284
0,0.484276
0,0.446255
0,0.408821
0,0.373703
0,0.342625
0,0.317179
0,0.298698
0,0.288164
0,0.286141
0,0.292744
0,0.307645
0,0.330115
0,0.359066
0,0.393161
0,0.430978
0,0.471025
0,0.511823
0,0.551992
0,0.590294
0,0.625593
0,0.656963
0,0.683701
0,0.705320
0,0.721533
0,0.732236
0,0.737480
0,0.737443
0,0.732413
0,0.722765
0,0.708947
0,0.691465
0,0.670876
0,0.647777
0,0.622795
0,0.596574
0,0.569766
0,0.543016
0,0.516947
0,0.492148
0,0.469168
0,0.448505
0,0.430598
0,0.415826
0,0.404500
0,0.396855
0,0.393043
0,0.393125
0,0.397059
0,0.404698
0,0.415781
0,0.429942
0,0.446715
0,0.465552
0,0.485848
0,0.506968
0,0.528282
0,0.549195
0,0.569180
0,0.587802
0,0.604738
0,0.619780
0,0.632840
0,0.643931
0,0.653153
0,0.660769
0,0.666968
0,0.671925
0,0.675775
0,0.678574
0,0.680177
0,0.680426
0,0.679054
0,0.675686
0,0.669867
0,0.661089
0,0.648840
0,0.632650
0,0.612155
0,0.587144
0,0.557615
0,0.523808
0,0.486229
0,0.445657
0,0.403125
0,0.359892
0,0.317394
0,0.277188
0,0.240883
0,0.210066
0,0.186221
0,0.170649
0,0.164382
0,0.168105
0,0.182091
0,0.206150
0,0.239608
0,0.281317
0,0.329705
0,0.382860
0,0.438655
0,0.494880
0,0.549396
0,0.600273
0,0.645914
0,0.685138
0,0.717232
0,0.741962
0,0.759540
0,0.770564
0,0.775930
0,0.776727
0,0.774122
0,0.769248
0,0.763097
0,0.756429
0,0.749703
0,0.743032
0,0.736171
0,0.728533
0,0.719239
0,0.707196
0,0.691206
0,0.670086
0,0.642809
0,0.608632
0,0.567227
0,0.518769
0,0.464002
0,0.404257
0,0.341409
0,0.277796
0,0.216089
0,0.159119
0,0.109696
0,0.070412
0,0.043466
0,0.030514
0,0.032549
0,0.049838
0,0.081902
0,0.127542
0,0.184913
0,0.251634
0,0.324925
0,0.401768
0,0.479072
0,0.553839
0,0.623318
0,0.685130
0,0.737370
0,0.778662
0,0.808187
0,0.825667
0,0.831311
0,0.825756
0,0.809968
0,0.785159
0,0.752696
0,0.714013
0,0.670555
0,0.623716
0,0.574810
0,0.525048
0,0.475538
0,0.427287
0,0.381224
0,0.338221
0,0.299117
0,0.264741
0,0.235918
0,0.213460
0,0.198142
0,0.190649
0,0.191517
0,0.201061
0,0.219309
0,0.245947
0,0.280293
0,0.321303
0,0.367610
0,0.417596
0,0.469482
0,0.521445
0,0.571725
0,0.618729
0,0.661117
0,0.697875
0,0.728344
0,0.752242
0,0.769641
0,0.780932
0,0.786759
0,0.787944
0,0.785405
0,0.780065
0,0.772781
0,0.764268
0,0.755060
0,0.745470
0,0.735587
0,0.725281
0,0.714234
0,0.701984
0,0.687976
0,0.671631
0,0.652410
0,0.629883
0,0.603788
0,0.574082
0,0.540975
0,0.504947
0,0.466744
0,0.427355
0,0.387973
0,0.349935
0,0.314655
0,0.283548
0,0.257947
0,0.239028
0,0.227729
0,0.224690
0,0.230201
0,0.244174
0,0.266133
0,0.295235
0,0.330318
0,0.369972
0,0.412632
0,0.456679
0,0.500545
0,0.542811
0,0.582284
0,0.618053
0,0.649518
0,0.676391
0,0.698672
0,0.716608
0,0.730637
0,0.741317
0,0.749267
0,0.755095
0,0.759342
0,0.762440
0,0.764667
0,0.766133
0,0.766762
0,0.766300
0,0.764322
0,0.760264
0,0.753459
0,0.743187
0,0.728733
0,0.709455
0,0.684856
0,0.654651
0,0.618827
0,0.577689
0,0.531887
0,0.482409
0,0.430556
0,0.377889
0,0.326155
0,0.277198
0,0.232866
0,0.194914
0,0.164908
0,0.144143
0,0.133563
0,0.133708
0,0.144666
0,0.166059
0,0.197046
0,0.236359
0,0.282368
0,0.333177
0,0.386727
0,0.440923
0,0.493756
0,0.543404
0,0.588326
0,0.627316
0,0.659535
0,0.684512
0,0.702129
0,0.712580
0,0.716331
0,0.714060
0,0.706611
0,0.694936
0,0.680049
0,0.662981
0,0.644738
0,0.626271
0,0.608447
0,0.592033
0,0.577682
0,0.565927
0,0.557177
0,0.551719
0,0.549716
0,0.551205
0,0.556101
0,0.564188
0,0.575124
0,0.588438
0,0.603537
0,0.619713
0,0.636157
0,0.651982
0,0.666247
0,0.677989
0,0.686258
0,0.690159
0,0.688894
0,0.681804
0,0.668413
0,0.648468
0,0.621968
0,0.589190
0,0.550696
0,0.507331
0,0.460196
0,0.410606
0,0.360036
0,0.310052
0,0.262238
0,0.218119
0,0.179099
0,0.146397
0,0.121001
0,0.103633
0,0.094721
0,0.094389
0,0.102458
0,0.118453
0,0.141627
0,0.171003
0,0.205421
0,0.243603
0,0.284225
0,0.325992
0,0.367704
0,0.408318
0,0.446987
0,0.483083
0,0.516199
0,0.546135
0,0.572870
0,0.596522
0,0.617309
0,0.635510
0,0.651427
0,0.665355
0,0.677563
0,0.688275
0,0.697668
0,0.705872
0,0.712971
0,0.719018
0,0.724042
0,0.728057
0,0.731078
0,0.733124
0,0.734226
0,0.734425
0,0.733777
0,0.732344
0,0.730189
0,0.727373
0,0.723943
0,0.719932
0,0.715355
0,0.710208
0,0.704473
0,0.698122
0,0.691126
0,0.683465
0,0.675133
0,0.666151
0,0.656569
0,0.646472
0,0.635971
0,0.625202
0,0.614310
0,0.603434
0,0.592690
0,0.582151
0,0.571836
0,0.561695
0,0.551602
0,0.541361
0,0.530707
0,0.519322
0,0.506855
0,0.492943
0,0.477248
0,0.459479
0,0.439426
0,0.416990
0,0.392205
0,0.365255
0,0.336489
0,0.306419
0,0.275718
0,0.245199
0,0.215797
0,0.188528
0,0.164449
0,0.144605
0,0.129970
0,0.121392
0,0.119534
0,0.124825
0,0.137423
0,0.157195
0,0.183716
0,0.216285
0,0.253970
0,0.295653
0,0.340096
0,0.386011
0,0.432119
0,0.477214
0,0.520212
0,0.560182
0,0.596375
0,0.628237
0,0.655410
0,0.677729
0,0.695210
0,0.708036
0,0.716538
0,0.721169
0,0.722478
0,0.721080
0,0.717621
0,0.712746
0,0.707068
0,0.701135
0,0.695416
0,0.690276
0,0.685974
0,0.682657
0,0.680363
0,0.679033
0,0.678518
0,0.678598
0,0.678996
0,0.679400
0,0.679479
0,0.678908
0,0.677381
0,0.674635
0,0.670458
0,0.664705
0,0.657297
0,0.648229
0,0.637563
0,0.625422
0,0.611985
0,0.597482
0,0.582184
0,0.566395
0,0.550450
0,0.534697
0,0.519489
0,0.505166
0,0.492028
0,0.480315
0,0.470180
0,0.461665
0,0.454687
0,0.449027
0,0.444333
0,0.440135
0,0.435868
0,0.430909
0,0.424620
0,0.416401
0,0.405734
0,0.392240
0,0.375717
0,0.356178
0,0.333874
0,0.309302
0,0.283199
0,0.256524
0,0.230417
0,0.206144
0,0.185034
0,0.168399
0,0.157447
0,0.153200
0,0.156418
0,0.167529
0,0.186596
0,0.213294
0,0.246922
0,0.286446
0,0.330560
0,0.377771
0,0.426492
0,0.475146
0,0.522256
0,0.566530
0,0.606924
0,0.642687
0,0.673378
0,0.698862
0,0.719284
0,0.735027
0,0.746655
0,0.754852
0,0.760357
0,0.763908
0,0.766186
0,0.767779
0,0.769147
0,0.770604
0,0.772315
0,0.774297
0,0.776435
0,0.778502
0,0.780194
0,0.781160
0,0.781043
0,0.779512
0,0.776297
0,0.771209
0,0.764164
0,0.755183
0,0.744394
0,0.732020
0,0.718355
0,0.703746
0,0.688554
0,0.673135
0,0.657802
0,0.642813
0,0.628346
0,0.614498
0,0.601285
0,0.588652
0,0.576491
0,0.564664
0,0.553023
0,0.541432
0,0.529789
0,0.518028
0,0.506127
0,0.494100
0,0.481985
0,0.469827
0,0.457658
0,0.445482
0,0.433263
0,0.420918
0,0.408325
0,0.395327
0,0.381757
0,0.367460
0,0.352316
0,0.336262
0,0.319318
0,0.301593
0,0.283299
0,0.264746
0,0.246342
0,0.228578
0,0.212010
0,0.197243
0,0.184899
0,0.175594
0,0.169900
0,0.168313
0,0.171220
0,0.178867
0,0.191333
0,0.208516
0,0.230128
0,0.255702
0,0.284617
0,0.316128
0,0.349408
0,0.383598
0,0.417852
0,0.451386
0,0.483516
0,0.513687
0,0.541491
0,0.566678
0,0.589144
0,0.608921
0,0.626153
0,0.641068
0,0.653952
0,0.665120
0,0.674889
0,0.683560
0,0.691401
0,0.698633
0,0.705428
0,0.711901
0,0.718118
0,0.724098
0,0.729818
0,0.735226
0,0.740248
0,0.744800
0,0.748791
0,0.752141
0,0.754778
0,0.756646
0,0.757711
0,0.757953
0,0.757371
0,0.755973
0,0.753776
0,0.750799
0,0.747057
0,0.742563
0,0.737321
0,0.731333
0,0.724602
0,0.717136
0,0.708952
0,0.700082
0,0.690574
0,0.680489
0,0.669898
0,0.658876
0,0.647495
0,0.635821
0,0.623903
0,0.611771
0,0.599433
0,0.586872
0,0.574043
0,0.560874
0,0.547262
0,0.533072
0,0.518141
0,0.502277
0,0.485264
0,0.466880
0,0.446903
0,0.425142
0,0.401453
0,0.375773
0,0.348147
0,0.318759
0,0.287947
0,0.256229
0,0.224297
0,0.193013
0,0.163381
0,0.136506
0,0.113538
0,0.095602
0,0.083727
0,0.078763
0,0.081314
0,0.091675
0,0.109796
0,0.135257
0,0.167284
0,0.204780
0,0.246389
0,0.290572
0,0.335702
0,0.380165
0,0.422449
0,0.461234
0,0.495460
0,0.524378
0,0.547576
0,0.564989
0,0.576878
0,0.583801
0,0.586553
0,0.586107
0,0.583540
0,0.579952
0,0.576395
0,0.573799
0,0.572917
0,0.574275
0,0.578149
0,0.584548
0,0.593232
0,0.603733
0,0.615404
0,0.627475
0,0.639125
0,0.649550
0,0.658038
0,0.664024
0,0.667145
0,0.667259
0,0.664452
0,0.659016
0,0.651406
0,0.642185
0,0.631958
0,0.621305
0,0.610733
0,0.600625
0,0.591233
0,0.582666
0,0.574911
0,0.567860
0,0.561340
0,0.555146
0,0.549070
0,0.542912
0,0.536498
0,0.529673
0,0.522302
0,0.514260
0,0.505426
0,0.495679
0,0.484894
0,0.472949
0,0.459726
0,0.445121
0,0.429057
0,0.411489
0,0.392421
0,0.371919
0,0.350126
0,0.327281
0,0.303735
0,0.279969
0,0.256605
0,0.234406
0,0.214273
0,0.197208
0,0.184275
0,0.176536
0,0.174973
0,0.180406
0,0.193409
0,0.214239
0,0.242786
0,0.278552
0,0.320656
0,0.367879
0,0.418736
0,0.471566
0,0.524644
0,0.576291
0,0.624978
0,0.669416
0,0.708621
0,0.741950
0,0.769119
0,0.790184
0,0.805505
0,0.815688
0,0.821522
0,0.823900
0,0.823741
0,0.821924
0,0.819220
0,0.816244
0,0.813421
0,0.810975
0,0.808932
0,0.807149
0,0.805350
0,0.803183
0,0.800271
0,0.796270
0,0.790916
0,0.784051
0,0.775644
0,0.765787
0,0.754675
0,0.742580
0,0.729815
0,0.716695
0,0.703506
0,0.690476
0,0.677760
0,0.665432
0,0.653488
0,0.641857
0,0.630420
0,0.619031
0,0.607540
0,0.595812
0,0.583748
0,0.571291
0,0.558441
0,0.545247
0,0.531809
0,0.518264
0,0.504770
0,0.491490
0,0.478568
0,0.466108
0,0.454154
0,0.442680
0,0.431577
0,0.420659
0,0.409668
0,0.398297
0,0.386211
0,0.373081
0,0.358620
0,0.342615
0,0.324965
0,0.305712
0,0.285060
0,0.263394
0,0.241275
0,0.219433
0,0.198735
0,0.180143
0,0.164658
0,0.153256
0,0.146814
0,0.146042
0,0.151424
0,0.163169
0,0.181183
0,0.205063
0,0.234117
0,0.267403
0,0.303791
0,0.342042
0,0.380882
0,0.419090
0,0.455569
0,0.489408
0,0.519926
0,0.546694
0,0.569542
0,0.588545
0,0.603991
0,0.616342
0,0.626181
0,0.634158
0,0.640933
0,0.647125
0,0.653267
0,0.659770
0,0.666901
0,0.674778
0,0.683372
0,0.692525
0,0.701978
0,0.711402
0,0.720428
0,0.728687
0,0.735830
0,0.741553
0,0.745613
0,0.747839
0,0.748137
0,0.746490
0,0.742952
0,0.737646
0,0.730743
0,0.722451
0,0.712997
0,0.702607
0,0.691491
0,0.679830
0,0.667766
0,0.655403
0,0.642805
0,0.630008
0,0.617026
0,0.603861
0,0.590519
0,0.577012
0,0.563366
0,0.549626
0,0.535846
0,0.522089
0,0.508415
0,0.494869
0,0.481466
0,0.468185
0,0.454953
0,0.441645
0,0.428085
0,0.414056
0,0.399314
0,0.383611
0,0.366727
0,0.348493
0,0.328833
0,0.307793
0,0.285572
0,0.262546
0,0.239278
0,0.216514
0,0.195163
0,0.176258
0,0.160893
0,0.150157
0,0.145048
0,0.146393
0,0.154771
0,0.170454
0,0.193369
0,0.223086
0,0.258834
0,0.299549
0,0.343932
0,0.390544
0,0.437887
0,0.484505
0,0.529063
0,0.570421
0,0.607689
0,0.640256
0,0.667804
0,0.690299
0,0.707964
0,0.721235
0,0.730710
0,0.737089
0,0.741105
0,0.743476
0,0.744841
0,0.745726
0,0.746515
0,0.747440
0,0.748580
0,0.749889
0,0.751218
0,0.752354
0,0.753057
0,0.753097
0,0.752276
0,0.750456
0,0.747556
0,0.743555
0,0.738482
0,0.732397
0,0.725374
0,0.717485
0,0.708787
0,0.699313
0,0.689074
0,0.678059
0,0.666249
0,0.653627
0,0.640197
0,0.625991
0,0.611089
0,0.595615
0,0.579746
0,0.563702
0,0.547734
0,0.532104
0,0.517066
0,0.502839
0,0.489582
0,0.477376
0,0.466205
0,0.455948
0,0.446376
0,0.437166
0,0.427917
0,0.418179
0,0.407482
0,0.395382
0,0.381494
0,0.365538
0,0.347374
0,0.327033
0,0.304745
0,0.280945
0,0.256278
0,0.231580
0,0.207844
0,0.186167
0,0.167694
0,0.153534
0,0.144688
0,0.141966
0,0.145929
0,0.156832
0,0.174599
0,0.198824
0,0.228791
0,0.263527
0,0.301867
0,0.342535
0,0.384232
0,0.425716
0,0.465875
0,0.503783
0,0.538740
0,0.570284
0,0.598187
0,0.622439
0,0.643209
0,0.660803
0,0.675619
0,0.688098
0,0.698686
0,0.707791
0,0.715761
0,0.722864
0,0.729279
0,0.735102
0,0.740353
0,0.744998
0,0.748965
0,0.752175
0,0.754553
0,0.756053
0,0.756660
0,0.756401
0,0.755335
0,0.753544
0,0.751125
0,0.748171
0,0.744755
0,0.740923
0,0.736679
0,0.731985
0,0.726757
0,0.720877
0,0.714198
0,0.706568
0,0.697842
0,0.687905
0,0.676690
0,0.664185
0,0.650444
0,0.635575
0,0.619737
0,0.603115
0,0.585896
0,0.568252
0,0.550313
0,0.532152
0,0.513779
0,0.495143
0,0.476136
0,0.456621
0,0.436445
0,0.415471
0,0.393602
0,0.370807
0,0.347142
0,0.322761
0,0.297928
0,0.273014
0,0.248495
0,0.224936
0,0.202974
0,0.183299
0,0.166618
0,0.153633
0,0.144997
0,0.141281
0,0.142935
0,0.150247
0,0.163314
0,0.182014
0,0.205998
0,0.234693
0,0.267321
0,0.302937
0,0.340484
0,0.378848
0,0.416935
0,0.453729
0,0.488355
0,0.520127
0,0.548575
0,0.573461
0,0.594778
0,0.612721
0,0.627659
0,0.640082
0,0.650556
0,0.659660
0,0.667942
0,0.675873
0,0.683810
0,0.691982
0,0.700474
0,0.709233
0,0.718086
0,0.726754
0,0.734888
0,0.742097
0,0.747979
0,0.752156
0,0.754299
0,0.754155
0,0.751563
0,0.746463
0,0.738902
0,0.729032
0,0.717092
0,0.703399
0,0.688322
0,0.672264
0,0.655634
0,0.638832
0,0.622226
0,0.606140
0,0.590844
0,0.576547
0,0.563392
0,0.551465
0,0.540788
0,0.531328
0,0.523003
0,0.515682
0,0.509188
0,0.503306
0,0.497778
0,0.492312
0,0.486583
0,0.480244
0,0.472933
0,0.464287
0,0.453968
0,0.441676
0,0.427183
0,0.410352
0,0.391171
0,0.369768
0,0.346431
0,0.321614
0,0.295931
0,0.270145
0,0.245134
0,0.221856
0,0.201302
0,0.184443
0,0.172167
0,0.165229
0,0.164196
0,0.169400
0,0.180910
0,0.198510
0,0.221710
0,0.249761
0,0.281702
0,0.316418
0,0.352712
0,0.389388
0,0.425325
0,0.459547
0,0.491281
0,0.519989
0,0.545389
0,0.567441
0,0.586328
0,0.602412
0,0.616186
0,0.628215
0,0.639078
0,0.649322
0,0.659411
0,0.669696
0,0.680395
0,0.691580
0,0.703189
0,0.715035
0,0.726832
0,0.738226
0,0.748829
0,0.758251
0,0.766136
0,0.772190
0,0.776198
0,0.778041
0,0.777699
0,0.775251
0,0.770858
0,0.764749
0,0.757204
0,0.748525
0,0.739020
0,0.728982
0,0.718672
0,0.708313
0,0.698080
0,0.688101
0,0.678456
0,0.669183
0,0.660285
0,0.651733
0,0.643472
0,0.635427
0,0.627511
0,0.619623
0,0.611653
0,0.603490
0,0.595017
0,0.586118
0,0.576680
0,0.566592
0,0.555746
0,0.544034
0,0.531348
0,0.517574
0,0.502593
0,0.486278
0,0.468502
0,0.449146
0,0.428113
0,0.405351
0,0.380874
0,0.354792
0,0.327334
0,0.298869
0,0.269921
0,0.241170
0,0.213442
0,0.187678
0,0.164900
0,0.146151
0,0.132429
0,0.124616
0,0.123404
0,0.129231
0,0.142231
0,0.162200
0,0.188597
0,0.220560
0,0.256961
0,0.296474
0,0.337661
0,0.379074
0,0.419346
0,0.457280
0,0.491919
0,0.522597
0,0.548962
0,0.570972
0,0.588870
0,0.603136
0,0.614418
0,0.623458
0,0.631013
0,0.637783
0,0.644341
0,0.651087
0,0.658225
0,0.665754
0,0.673491
0,0.681106
0,0.688182
0,0.694271
0,0.698960
0,0.701924
0,0.702966
0,0.702036
0,0.699235
0,0.694797
0,0.689054
0,0.682398
0,0.675231
0,0.667918
0,0.660752
0,0.653925
0,0.647508
0,0.641458
0,0.635625
0,0.629782
0,0.623658
0,0.616977
0,0.609497
0,0.601047
0,0.591550
0,0.581035
0,0.569638
0,0.557588
0,0.545183
0,0.532748
0,0.520602
0,0.509012
0,0.498155
0,0.488087
0,0.478721
0,0.469819
0,0.461004
0,0.451783
0,0.441590
0,0.429837
0,0.415976
0,0.399562
0,0.380313
0,0.358161
0,0.333287
0,0.306142
0,0.277448
0,0.248173
0,0.219495
0,0.192741
0,0.169312
0,0.150596
0,0.137879
0,0.132256
0,0.134539
0,0.145200
0,0.164313
0,0.191539
0,0.226132
0,0.266979
0,0.312661
0,0.361548
0,0.411900
0,0.461979
0,0.510159
0,0.555019
0,0.595421
0,0.630561
0,0.659990
0,0.683612
0,0.701648
0,0.714595
0,0.723153
0,0.728161
0,0.730519
0,0.731122
0,0.730800
0,0.730275
0,0.730118
0,0.730738
0,0.732370
0,0.735078
0,0.738776
0,0.743242
0,0.748154
0,0.753122
0,0.757720
0,0.761529
0,0.764162
0,0.765298
0,0.764702
0,0.762236
0,0.757865
0,0.751651
0,0.743740
0,0.734344
0,0.723720
0,0.712148
0,0.699905
0,0.687253
0,0.674419
0,0.661582
0,0.648872
0,0.636360
0,0.624065
0,0.611954
0,0.599956
0,0.587974
0,0.575898
0,0.563621
0,0.551056
0,0.538140
0,0.524846
0,0.511175
0,0.497149
0,0.482799
0,0.468144
0,0.453179
0,0.437858
0,0.422090
0,0.405744
0,0.388657
0,0.370660
0,0.351607
0,0.331409
0,0.310069
0,0.287719
0,0.264640
0,0.241281
0,0.218257
0,0.196334
0,0.176398
0,0.159403
0,0.146309
0,0.138014
0,0.135280
0,0.138665
0,0.148468
0,0.164691
0,0.187023
0,0.214853
0,0.247302
0,0.283284
0,0.321575
0,0.360897
0,0.400004
0,0.437757
0,0.473193
0,0.505570
0,0.534402
0,0.559460
0,0.580762
0,0.598542
0,0.613202
0,0.625264
0,0.635308
0,0.643918
0,0.651636
0,0.658919
0,0.666113
0,0.673441
0,0.680995
0,0.688756
0,0.696602
0,0.704344
0,0.711750
0,0.718577
0,0.724598
0,0.729627
0,0.733529
0,0.736225
0,0.737692
0,0.737952
0,0.737060
0,0.735086
0,0.732107
0,0.728194
0,0.723407
0,0.717793
0,0.711387
0,0.704220
0,0.696326
0,0.687747
0,0.678541
0,0.668782
0,0.658564
0,0.647992
0,0.637176
0,0.626216
0,0.615197
0,0.604170
0,0.593149
0,0.582107
0,0.570980
0,0.559667
0,0.548049
0,0.535998
0,0.523389
0,0.510109
0,0.496068
0,0.481195
0,0.465444
0,0.448780
0,0.431183
0,0.412639
0,0.393140
0,0.372690
0,0.351317
0,0.329089
0,0.306136
0,0.282680
0,0.259053
0,0.235718
0,0.213274
0,0.192454
0,0.174099
0,0.159122
0,0.148451
0,0.142970
0,0.143441
0,0.150439
0,0.164283
0,0.184990
0,0.212239
0,0.245373
0,0.283419
0,0.325141
0,0.369113
0,0.413811
0,0.457719
0,0.499424
0,0.537712
0,0.571640
0,0.600580
0,0.624244
0,0.642673
0,0.656209
0,0.665438
0,0.671130
0,0.674164
0,0.675456
0,0.675886
0,0.676243
0,0.677173
0,0.679152
0,0.682464
0,0.687208
0,0.693312
0,0.700558
0,0.708619
0,0.717097
0,0.725563
0,0.733589
0,0.740778
0,0.746785
0,0.751327
0,0.754192
0,0.755234
0,0.754373
0,0.751581
0,0.746882
0,0.740338
0,0.732052
0,0.722157
0,0.710822
0,0.698247
0,0.684661
0,0.670320
0,0.655502
0,0.640496
0,0.625587
0,0.611050
0,0.597129
0,0.584023
0,0.571879
0,0.560777
0,0.550731
0,0.541681
0,0.533502
0,0.526001
0,0.518931
0,0.511992
0,0.504844
0,0.497116
0,0.488422
0,0.478373
0,0.466604
0,0.452790
0,0.436681
0,0.418123
0,0.397085
0,0.373680
0,0.348184
0,0.321037
0,0.292847
0,0.264369
0,0.236489
0,0.210180
0,0.186464
0,0.166357
0,0.150814
0,0.140669
0,0.136583
0,0.138994
0,0.148082
0,0.163737
0,0.185561
0,0.212873
0,0.244747
0,0.280060
0,0.317564
0,0.355962
0,0.393992
0,0.430509
0,0.464551
0,0.495390
0,0.522562
0,0.545870
0,0.565367
0,0.581321
0,0.594166
0,0.604447
0,0.612761
0,0.619714
0,0.625871
0,0.631733
0,0.637706
0,0.644095
0,0.651099
0,0.658809
0,0.667217
0,0.676224
0,0.685653
0,0.695260
0,0.704757
0,0.713822
0,0.722128
0,0.729357
0,0.735224
0,0.739496
0,0.742008
0,0.742671
0,0.741479
0,0.738510
0,0.733913
0,0.727896
0,0.720708
0,0.712618
0,0.703892
0,0.694775
0,0.685470
0,0.676128
0,0.666846
0,0.657661
0,0.648564
0,0.639509
0,0.630432
0,0.621261
0,0.611936
0,0.602418
0,0.592690
0,0.582757
0,0.572637
0,0.562340
0,0.551854
0,0.541118
0,0.530010
0,0.518331
0,0.505804
0,0.492087
0,0.476799
0,0.459556
0,0.440018
0,0.417943
0,0.393241
0,0.366010
0,0.336577
0,0.305507
0,0.273601
0,0.241868
0,0.211482
0,0.183715
0,0.159868
0,0.141183
0,0.128758
0,0.123467
0,0.125888
0,0.136249
0,0.154399
0,0.179806
0,0.211580
0,0.248525
0,0.289219
0,0.332104
0,0.375591
0,0.418156
0,0.458444
0,0.495336
0,0.528014
0,0.555982
0,0.579076
0,0.597438
0,0.611476
0,0.621803
0,0.629171
0,0.634404
0,0.638326
0,0.641706
0,0.645205
0,0.649340
0,0.654458
0,0.660723
0,0.668116
0,0.676452
0,0.685408
0,0.694554
0,0.703404
0,0.711465
0,0.718279
0,0.723473
0,0.726790
0,0.728110
0,0.727454
0,0.724980
0,0.720951
0,0.715707
0,0.709618
0,0.703050
0,0.696318
0,0.689666
0,0.683246
0,0.677111
0,0.671222
0,0.665464
0,0.659658
0,0.653591
0,0.647031
0,0.639752
0,0.631554
0,0.622279
0,0.611819
0,0.600131
0,0.587233
0,0.573209
0,0.558199
0,0.542390
0,0.525999
0,0.509259
0,0.492390
0,0.475578
0,0.458955
0,0.442574
0,0.426402
0,0.410318
0,0.394121
0,0.377561
0,0.360368
0,0.342300
0,0.323186
0,0.302973
0,0.281763
0,0.259835
0,0.237654
0,0.215859
0,0.195237
0,0.176675
0,0.161106
0,0.149443
0,0.142512
0,0.140980
0,0.145309
0,0.155701
0,0.172083
0,0.194100
0,0.221137
0,0.252361
0,0.286778
0,0.323306
0,0.360849
0,0.398370
0,0.434952
0,0.469841
0,0.502477
0,0.532499
0,0.559730
0,0.584157
0,0.605890
0,0.625124
0,0.642102
0,0.657080
0,0.670305
0,0.681995
0,0.692339
0,0.701494
0,0.709596
0,0.716765
0,0.723119
0,0.728772
0,0.733840
0,0.738432
0,0.742644
0,0.746544
0,0.750164
0,0.753493
0,0.756468
0,0.758985
0,0.760899
0,0.762047
0,0.762258
0,0.761380
0,0.759287
0,0.755902
0,0.751195
0,0.745189
0,0.737952
0,0.729591
0,0.720237
0,0.710038
0,0.699145
0,0.687707
0,0.675869
0,0.663765
0,0.651520
0,0.639250
0,0.627057
0,0.615033
0,0.603249
0,0.591756
0,0.580581
0,0.569718
0,0.559128
0,0.548738
0,0.538437
0,0.528085
0,0.517510
0,0.506519
0,0.494902
0,0.482443
0,0.468925
0,0.454144
0,0.437918
0,0.420105
0,0.400615
0,0.379436
0,0.356646
0,0.332437
0,0.307128
0,0.281172
0,0.255158
0,0.229793
0,0.205883
0,0.184290
0,0.165892
0,0.151519
0,0.141905
0,0.137628
0,0.139067
0,0.146367
0,0.159421
0,0.177874
0,0.201141
0,0.228446
0,0.258872
0,0.291421
0,0.325074
0,0.358857
0,0.391888
0,0.423421
0,0.452876
0,0.479855
0,0.504141
0,0.525694
0,0.544629
0,0.561193
0,0.575732
0,0.588660
0,0.600420
0,0.611450
0,0.622149
0,0.632846
0,0.643776
0,0.655065
0,0.666719
0,0.678628
0,0.690578
0,0.702268
0,0.713340
0,0.723405
0,0.732080
0,0.739017
0,0.743936
0,0.746651
0,0.747079
0,0.745253
0,0.741317
0,0.735512
0,0.728152
0,0.719602
0,0.710242
0,0.700443
0,0.690537
0,0.680803
0,0.671448
0,0.662609
0,0.654345
0,0.646651
0,0.639463
0,0.632671
0,0.626136
0,0.619700
0,0.613199
0,0.606475
0,0.599380
0,0.591783
0,0.583564
0,0.574612
0,0.564820
0,0.554078
0,0.542271
0,0.529276
0,0.514970
0,0.499232
0,0.481960
0,0.463082
0,0.442567
0,0.420449
0,0.396831
0,0.371907
0,0.345961
0,0.319382
0,0.292658
0,0.266371
0,0.241189
0,0.217845
0,0.197113
0,0.179775
0,0.166583
0,0.158218
0,0.155244
0,0.158070
0,0.166909
0,0.181755
0,0.202370
0,0.228284
0,0.258814
0,0.293096
0,0.330134
0,0.368854
0,0.408165
0,0.447017
0,0.484463
0,0.519698
0,0.552100
0,0.581241
0,0.606903
0,0.629058
0,0.647856
0,0.663594
0,0.676675
0,0.687573
0,0.696789
0,0.704814
0,0.712086
0,0.718967
0,0.725711
0,0.732459
0,0.739229
0,0.745923
0,0.752349
0,0.758240
0,0.763288
0,0.767176
0,0.769615
0,0.770367
0,0.769273
0,0.766264
0,0.761366
0,0.754696
0,0.746444
0,0.736857
0,0.726210
0,0.714784
0,0.702841
0,0.690602
0,0.678236
0,0.665851
0,0.653493
0,0.641153
0,0.628774
0,0.616272
0,0.603546
0,0.590501
0,0.577063
0,0.563191
0,0.548888
0,0.534206
0,0.519244
0,0.504143
0,0.489071
0,0.474209
0,0.459728
0,0.445770
0,0.432425
0,0.419716
0,0.407585
0,0.395889
0,0.384411
0,0.372870
0,0.360951
0,0.348337
0,0.334751
0,0.319989
0,0.303963
0,0.286725
0,0.268489
0,0.249630
0,0.230682
0,0.212310
0,0.195282
0,0.180419
0,0.168554
0,0.160469
0,0.156854
0,0.158252
0,0.165021
0,0.177306
0,0.195024
0,0.217861
0,0.245289
0,0.276596
0,0.310933
0,0.347359
0,0.384902
0,0.422613
0,0.459610
0,0.495125
0,0.528525
0,0.559331
0,0.587223
0,0.612035
0,0.633742
0,0.652440
0,0.668328
0,0.681682
0,0.692829
0,0.702128
0,0.709947
0,0.716639
0,0.722528
0,0.727889
0,0.732941
0,0.737832
0,0.742643
0,0.747381
0,0.751991
0,0.756363
0,0.760346
0,0.763757
0,0.766405
0,0.768095
0,0.768649
0,0.767911
0,0.765762
0,0.762126
0,0.756975
0,0.750334
0,0.742284
0,0.732951
0,0.722509
0,0.711164
0,0.699139
0,0.686666
0,0.673961
0,0.661218
0,0.648595
0,0.636205
0,0.624115
0,0.612351
0,0.600900
0,0.589719
0,0.578746
0,0.567905
0,0.557115
0,0.546292
0,0.535349
0,0.524199
0,0.512744
0,0.500881
0,0.488492
0,0.475448
0,0.461609
0,0.446829
0,0.430966
0,0.413889
0,0.395498
0,0.375735
0,0.354606
0,0.332200
0,0.308708
0,0.284437
0,0.259822
0,0.235427
0,0.211937
0,0.190136
0,0.170874
0,0.155021
0,0.143416
0,0.136808
0,0.135795
0,0.140778
0,0.151918
0,0.169111
0,0.191988
0,0.219927
0,0.252089
0,0.287467
0,0.324952
0,0.363397
0,0.401688
0,0.438805
0,0.473877
0,0.506214
0,0.535337
0,0.560974
0,0.583060
0,0.601709
0,0.617184
0,0.629860
0,0.640189
0,0.648653
0,0.655737
0,0.661896
0,0.667530
0,0.672965
0,0.678445
0,0.684125
0,0.690068
0,0.696255
0,0.702591
0,0.708921
0,0.715044
0,0.720734
0,0.725755
0,0.729883
0,0.732918
0,0.734696
0,0.735103
0,0.734071
0,0.731580
0,0.727653
0,0.722348
0,0.715745
0,0.707941
0,0.699041
0,0.689153
0,0.678389
0,0.666864
0,0.654701
0,0.642029
0,0.628993
0,0.615743
0,0.602435
0,0.589222
0,0.576242
0,0.563610
0,0.551412
0,0.539691
0,0.528448
0,0.517638
0,0.507169
0,0.496901
0,0.486649
0,0.476183
0,0.465237
0,0.453514
0,0.440701
0,0.426488
0,0.410597
0,0.392810
0,0.373002
0,0.351180
0,0.327511
0,0.302347
0,0.276231
0,0.249902
0,0.224265
0,0.200361
0,0.179306
0,0.162230
0,0.150199
0,0.144142
0,0.144779
0,0.152561
0,0.167622
0,0.189763
0,0.218445
0,0.252821
0,0.291777
0,0.334005
0,0.378083
0,0.422564
0,0.466059
0,0.507326
0,0.545327
0,0.579285
0,0.608702
0,0.633377
0,0.653380
0,0.669028
0,0.680838
0,0.689466
0,0.695653
0,0.700156
0,0.703695
0,0.706903
0,0.710285
0,0.714197
0,0.718831
0,0.724224
0,0.730269
0,0.736742
0,0.743336
0,0.749691
0,0.755435
0,0.760212
0,0.763712
0,0.765691
0,0.765985
0,0.764516
0,0.761287
0,0.756378
0,0.749927
0,0.742117
0,0.733150
0,0.723237
0,0.712574
0,0.701335
0,0.689659
0,0.677651
0,0.665375
0,0.652863
0,0.640121
0,0.627136
0,0.613883
0,0.600336
0,0.586472
0,0.572275
0,0.557740
0,0.542871
0,0.527682
0,0.512193
0,0.496433
0,0.480431
0,0.464213
0,0.447798
0,0.431189
0,0.414366
0,0.397285
0,0.379875
0,0.362046
0,0.343704
0,0.324771
0,0.305211
0,0.285059
0,0.264455
0,0.243661
0,0.223079
0,0.203253
0,0.184853
0,0.168651
0,0.155481
0,0.146179
0,0.141531
0,0.142206
0,0.148692
0,0.161252
0,0.179880
0,0.204288
0,0.233911
0,0.267934
0,0.305339
0,0.344975
0,0.385625
0,0.426093
0,0.465268
0,0.502196
0,0.536123
0,0.566527
0,0.593124
0,0.615861
0,0.634886
0,0.650511
0,0.663163
0,0.673339
0,0.681561
0,0.688335
0,0.694119
0,0.699308
0,0.704211
0,0.709049
0,0.713951
0,0.718960
0,0.724033
0,0.729057
0,0.733858
0,0.738216
0,0.741885
0,0.744611
0,0.746153
0,0.746304
0,0.744904
0,0.741859
0,0.737145
0,0.730813
0,0.722979
0,0.713816
0,0.703536
0,0.692366
0,0.680529
0,0.668220
0,0.655594
0,0.642750
0,0.629736
0,0.616550
0,0.603154
0,0.589491
0,0.575501
0,0.561139
0,0.546386
0,0.531257
0,0.515801
0,0.500098
0,0.484246
0,0.468351
0,0.452503
0,0.436768
0,0.421170
0,0.405686
0,0.390242
0,0.374721
0,0.358979
0,0.342859
0,0.326219
0,0.308958
0,0.291043
0,0.272538
0,0.253622
0,0.234605
0,0.215938
0,0.198201
0,0.182091
0,0.168389
0,0.157918
0,0.151492
0,0.149856
0,0.153633
0,0.163268
0,0.178981
0,0.200746
0,0.228271
0,0.261008
0,0.298176
0,0.338802
0,0.381775
0,0.425906
0,0.469995
0,0.512899
0,0.553586
0,0.591190
0,0.625046
0,0.654713
0,0.679979
0,0.700855
0,0.717554
0,0.730453
0,0.740058
0,0.746951
0,0.751744
0,0.755034
0,0.757354
0,0.759150
0,0.760746
0,0.762345
0,0.764019
0,0.765725
0,0.767330
0,0.768629
0,0.769388
0,0.769364
0,0.768345
0,0.766168
0,0.762736
0,0.758028
0,0.752097
0,0.745060
0,0.737085
0,0.728369
0,0.719121
0,0.709541
0,0.699805
0,0.690056
0,0.680392
0,0.670863
0,0.661473
0,0.652183
0,0.642916
0,0.633572
0,0.624034
0,0.614187
0,0.603926
0,0.593170
0,0.581868
0,0.569998
0,0.557568
0,0.544606
0,0.531151
0,0.517236
0,0.502886
0,0.488100
0,0.472854
0,0.457099
0,0.440766
0,0.423776
0,0.406052
0,0.387530
0,0.368179
0,0.348011
0,0.327097
0,0.305581
0,0.283688
0,0.261736
0,0.240137
0,0.219392
0,0.200089
0,0.182878
0,0.168448
0,0.157495
0,0.150679
0,0.148578
0,0.151644
0,0.160159
0,0.174200
0,0.193613
0,0.218007
0,0.246761
0,0.279053
0,0.313900
0,0.350221
0,0.386899
0,0.422853
0,0.457105
0,0.488835
0,0.517430
0,0.542512
0,0.563943
0,0.581824
0,0.596462
0,0.608334
0,0.618031
0,0.626208
0,0.633521
0,0.640574
0,0.647872
0,0.655790
0,0.664544
0,0.674192
0,0.684634
0,0.695632
0,0.706842
0,0.717842
0,0.728178
0,0.737398
0,0.745090
0,0.750909
0,0.754607
0,0.756038
0,0.755168
0,0.752071
0,0.746912
0,0.739937
0,0.731445
0,0.721767
0,0.711247
0,0.700216
0,0.688975
0,0.677783
0,0.666845
0,0.656301
0,0.646229
0,0.636642
0,0.627499
0,0.618708
0,0.610141
0,0.601650
0,0.593077
0,0.584269
0,0.575083
0,0.565396
0,0.555102
0,0.544109
0,0.532338
0,0.519713
0,0.506160
0,0.491600
0,0.475942
0,0.459107
0,0.441026
0,0.421654
0,0.400983
0,0.379068
0,0.356022
0,0.332040
0,0.307405
0,0.282499
0,0.257803
0,0.233893
0,0.211429
0,0.191130
0,0.173748
0,0.160029
0,0.150673
0,0.146283
0,0.147325
0,0.154088
0,0.166648
0,0.184853
0,0.208317
0,0.236430
0,0.268389
0,0.303235
0,0.339909
0,0.377313
0,0.414375
0,0.450110
0,0.483674
0,0.514413
0,0.541888
0,0.565889
0,0.586430
0,0.603725
0,0.618157
0,0.630228
0,0.640509
0,0.649589
0,0.658024
0,0.666295
0,0.674776
0,0.683711
0,0.693206
0,0.703227
0,0.713617
0,0.724116
0,0.734385
0,0.744039
0,0.752679
0,0.759921
0,0.765426
0,0.768922
0,0.770227
0,0.769256
0,0.766030
0,0.760677
0,0.753419
0,0.744562
0,0.734469
0,0.723543
0,0.712189
0,0.700792
0,0.689686
0,0.679127
0,0.669282
0,0.660212
0,0.651878
0,0.644147
0,0.636811
0,0.629615
0,0.622281
0,0.614548
0,0.606192
0,0.597028
0,0.586934
0,0.575859
0,0.563809
0,0.550838
0,0.537053
0,0.522577
0,0.507526
0,0.491998
0,0.476049
0,0.459687
0,0.442873
0,0.425519
0,0.407508
0,0.388710
0,0.369012
0,0.348346
0,0.326723
0,0.304257
0,0.281194
0,0.257918
0,0.234957
0,0.212970
0,0.192723
0,0.175048
0,0.160796
0,0.150784
0,0.145731
0,0.146201
0,0.152560
0,0.164929
0,0.183165
0,0.206864
0,0.235369
0,0.267812
0,0.303170
0,0.340324
0,0.378135
0,0.415518
0,0.451503
0,0.485296
0,0.516314
0,0.544204
0,0.568843
0,0.590318
0,0.608891
0,0.624948
0,0.638950
0,0.651371
0,0.662654
0,0.673167
0,0.683174
0,0.692826
0,0.702164
0,0.711133
0,0.719611
0,0.727440
0,0.734456
0,0.740521
0,0.745534
0,0.749447
0,0.752262
0,0.754018
0,0.754783
0,0.754631
0,0.753625
0,0.751798
0,0.749147
0,0.745621
0,0.741125
0,0.735528
0,0.728683
0,0.720441
0,0.710677
0,0.699313
0,0.686334
0,0.671802
0,0.655859
0,0.638724
0,0.620676
0,0.602039
0,0.583152
0,0.564343
0,0.545897
0,0.528035
0,0.510887
0,0.494481
0,0.478739
0,0.463480
0,0.448432
0,0.433262
0,0.417603
0,0.401091
0,0.383410
0,0.364331
0,0.343747
0,0.321708
0,0.298444
0,0.274371
0,0.250092
0,0.226380
0,0.204142
0,0.184375
0,0.168107
0,0.156328
0,0.149924
0,0.149605
0,0.155847
0,0.168845
0,0.188488
0,0.214350
0,0.245711
0,0.281596
0,0.320832
0,0.362129
0,0.404152
0,0.445614
0,0.485344
0,0.522357
0,0.555901
0,0.585485
0,0.610886
0,0.632139
0,0.649504
0,0.663424
0,0.674473
0,0.683292
0,0.690533
0,0.696802
0,0.702617
0,0.708368
0,0.714305
0,0.720526
0,0.726988
0,0.733529
0,0.739896
0,0.745780
0,0.750850
0,0.754787
0,0.757316
0,0.758226
0,0.757387
0,0.754757
0,0.750384
0,0.744397
0,0.736998
0,0.728440
0,0.719007
0,0.708995
0,0.698683
0,0.688315
0,0.678081
0,0.668103
0,0.658429
0,0.649032
0,0.639819
0,0.630642
0,0.621322
0,0.611666
0,0.601496
0,0.590664
0,0.579075
0,0.566693
0,0.553541
0,0.539698
0,0.525284
0,0.510435
0,0.495284
0,0.479935
0,0.464446
0,0.448814
0,0.432968
0,0.416780
0,0.400079
0,0.382671
0,0.364376
0,0.345061
0,0.324669
0,0.303260
0,0.281025
0,0.258303
0,0.235587
0,0.213503
0,0.192794
0,0.174279
0,0.158807
0,0.147210
0,0.140243
0,0.138532
0,0.142527
0,0.152460
0,0.168319
0,0.189833
0,0.216477
0,0.247498
0,0.281948
0,0.318744
0,0.356731
0,0.394748
0,0.431704
0,0.466634
0,0.498754
0,0.527497
0,0.552533
0,0.573766
0,0.591326
0,0.605535
0,0.616870
0,0.625913
0,0.633304
0,0.639691
0,0.645678
0,0.651790
0,0.658440
0,0.665902
0,0.674306
0,0.683632
0,0.693723
0,0.704298
0,0.714987
0,0.725352
0,0.734929
0,0.743264
0,0.749943
0,0.754632
0,0.757095
0,0.757214
0,0.754999
0,0.750579
0,0.744192
0,0.736161
0,0.726867
0,0.716711
0,0.706084
0,0.695334
0,0.684738
0,0.674487
0,0.664672
0,0.655286
0,0.646231
0,0.637335
0,0.628378
0,0.619115
0,0.609309
0,0.598756
0,0.587313
0,0.574913
0,0.561573
0,0.547395
0,0.532556
0,0.517289
0,0.501854
0,0.486511
0,0.471488
0,0.456953
0,0.442987
0,0.429576
0,0.416602
0,0.403857
0,0.391054
0,0.377868
0,0.363966
0,0.349051
0,0.332912
0,0.315457
0,0.296753
0,0.277046
0,0.256773
0,0.236556
0,0.217178
0,0.199543
0,0.184623
0,0.173393
0,0.166760
0,0.165491
0,0.170151
0,0.181053
0,0.198222
0,0.221388
0,0.249998
0,0.283249
0,0.320144
0,0.359559
0,0.400318
0,0.441268
0,0.481378
0,0.519757
0,0.555698
0,0.588698
0,0.618455
0,0.644839
0,0.667891
0,0.687790
0,0.704821
0,0.719323
0,0.731663
0,0.742191
0,0.751221
0,0.759008
0,0.765740
0,0.771531
0,0.776434
0,0.780442
0,0.783510
0,0.785567
0,0.786536
0,0.786349
0,0.784960
0,0.782358
0,0.778571
0,0.773668
0,0.767754
0,0.760965
0,0.753456
0,0.745387
0,0.736914
0,0.728172
0,0.719269
0,0.710278
0,0.701230
0,0.692117
0,0.682892
0,0.673478
0,0.663774
0,0.653671
0,0.643061
0,0.631848
0,0.619962
0,0.607362
0,0.594042
0,0.580030
0,0.565384
0,0.550185
0,0.534528
0,0.518517
0,0.502259
0,0.485853
0,0.469389
0,0.452946
0,0.436583
0,0.420339
0,0.404228
0,0.388236
0,0.372320
0,0.356408
0,0.340401
0,0.324181
0,0.307622
0,0.290601
0,0.273020
0,0.254826
0,0.236036
0,0.216759
0,0.197216
0,0.177755
0,0.158856
0,0.141125
0,0.125272
0,0.112080
0,0.102360
0,0.096897
0,0.096388
0,0.101389
0,0.112256
0,0.129110
0,0.151810
0,0.179951
0,0.212881
0,0.249737
0,0.289499
0,0.331053
0,0.373264
0,0.415040
0,0.455398
0,0.493513
0,0.528750
0,0.560690
0,0.589123
0,0.614043
0,0.635620
0,0.654161
0,0.670074
0,0.683815
0,0.695850
0,0.706612
0,0.716466
0,0.725687
0,0.734447
0,0.742814
0,0.750760
0,0.758182
0,0.764925
0,0.770810
0,0.775660
0,0.779328
0,0.781709
0,0.782758
0,0.782488
0,0.780968
0,0.778313
0,0.774670
0,0.770199
0,0.765056
0,0.759372
0,0.753248
0,0.746738
0,0.739855
0,0.732573
0,0.724839
0,0.716588
0,0.707757
0,0.698301
0,0.688205
0,0.677488
0,0.666202
0,0.654429
0,0.642270
0,0.629829
0,0.617208
0,0.604484
0,0.591709
0,0.578900
0,0.566040
0,0.553077
0,0.539929
0,0.526493
0,0.512648
0,0.498267
0,0.483219
0,0.467373
0,0.450610
0,0.432818
0,0.413905
0,0.393803
0,0.372482
0,0.349967
0,0.326355
0,0.301830
0,0.276687
0,0.251338
0,0.226321
0,0.202289
0,0.179999
0,0.160281
0,0.143995
0,0.131989
0,0.125040
0,0.123794
0,0.128719
0,0.140055
0,0.157782
0,0.181611
0,0.210982
0,0.245097
0,0.282961
0,0.323446
0,0.365355
0,0.407500
0,0.448767
0,0.488177
0,0.524932
0,0.558448
0,0.588363
0,0.614542
0,0.637055
0,0.656149
0,0.672211
0,0.685725
0,0.697223
0,0.707238
0,0.716259
0,0.724694
0,0.732843
0,0.740877
0,0.748835
0,0.756634
0,0.764085
0,0.770927
0,0.776859
0,0.781582
0,0.784828
0,0.786397
0,0.786173
0,0.784137
0,0.780365
0,0.775018
0,0.768322
0,0.760539
0,0.751943
0,0.742789
0,0.733289
0,0.723601
0,0.713811
0,0.703942
0,0.693953
0,0.683755
0,0.673227
0,0.662235
0,0.650649
0,0.638362
0,0.625303
0,0.611446
0,0.596813
0,0.581472
0,0.565530
0,0.549123
0,0.532401
0,0.515513
0,0.498592
0,0.481742
0,0.465024
0,0.448450
0,0.431979
0,0.415511
0,0.398898
0,0.381950
0,0.364453
0,0.346189
0,0.326961
0,0.306623
0,0.285108
0,0.262456
0,0.238842
0,0.214589
0,0.190174
0,0.166229
0,0.143514
0,0.122892
0,0.105278
0,0.091588
0,0.082681
0,0.079294
0,0.081989
0,0.091106
0,0.106729
0,0.128672
0,0.156480
0,0.189452
0,0.226683
0,0.267114
0,0.309597
0,0.352964
0,0.396091
0,0.437955
0,0.477688
0,0.514605
0,0.548229
0,0.578296
0,0.604743
0,0.627691
0,0.647411
0,0.664286
0,0.678770
0,0.691339
0,0.702457
0,0.712533
0,0.721898
0,0.730784
0,0.739321
0,0.747533
0,0.755356
0,0.762653
0,0.769239
0,0.774908
0,0.779452
0,0.782690
0,0.784481
0,0.784737
0,0.783430
0,0.780595
0,0.776320
0,0.770739
0,0.764019
0,0.756345
0,0.747904
0,0.738868
0,0.729387
0,0.719579
0,0.709525
0,0.699271
0,0.688829
0,0.678187
0,0.667313
0,0.656168
0,0.644711
0,0.632907
0,0.620736
0,0.608194
0,0.595295
0,0.582068
0,0.568550
0,0.554779
0,0.540782
0,0.526563
0,0.512093
0,0.497307
0,0.482099
0,0.466326
0,0.449820
0,0.432404
0,0.413908
0,0.394197
0,0.373194
0,0.350909
0,0.327456
0,0.303076
0,0.278146
0,0.253179
0,0.228818
0,0.205815
0,0.184996
0,0.167225
0,0.153349
0,0.144150
0,0.140286
0,0.142242
0,0.150292
0,0.164468
0,0.184551
0,0.210080
0,0.240376
0,0.274582
0,0.311720
0,0.350744
0,0.390606
0,0.430306
0,0.468946
0,0.505762
0,0.540156
0,0.571699
0,0.600136
0,0.625376
0,0.647469
0,0.666586
0,0.682988
0,0.696997
0,0.708971
0,0.719273
0,0.728248
0,0.736202
0,0.743382
0,0.749964
0,0.756046
0,0.761645
0,0.766703
0,0.771096
0,0.774656
0,0.777186
0,0.778491
0,0.778398
0,0.776777
0,0.773562
0,0.768758
0,0.762446
0,0.754775
0,0.745956
0,0.736235
0,0.725875
0,0.715129
0,0.704220
0,0.693314
0,0.682516
0,0.671861
0,0.661320
0,0.650814
0,0.640231
0,0.629449
0,0.618354
0,0.606855
0,0.594899
0,0.582470
0,0.569589
0,0.556302
0,0.542673
0,0.528767
0,0.514633
0,0.500300
0,0.485762
0,0.470976
0,0.455859
0,0.440294
0,0.424135
0,0.407219
0,0.389377
0,0.370452
0,0.350321
0,0.328914
0,0.306236
0,0.282388
0,0.257592
0,0.232194
0,0.206683
0,0.181679
0,0.157928
0,0.136274
0,0.117626
0,0.102911
0,0.093021
0,0.088754
0,0.090753
0,0.099450
0,0.115019
0,0.137345
0,0.166012
0,0.200312
0,0.239278
0,0.281735
0,0.326370
0,0.371816
0,0.416729
0,0.459877
0,0.500205
0,0.536896
0,0.569399
0,0.597446
0,0.621043
0,0.640442
0,0.656093
0,0.668596
0,0.678635
0,0.686922
0,0.694137
0,0.700878
0,0.707627
0,0.714717
0,0.722321
0,0.730454
0,0.738981
0,0.747644
0,0.756091
0,0.763916
0,0.770695
0,0.776025
0,0.779558
0,0.781023
0,0.780248
0,0.777161
0,0.771798
0,0.764285
0,0.754833
0,0.743717
0,0.731257
0,0.717797
0,0.703688
0,0.689264
0,0.674830
0,0.660641
0,0.646896
0,0.633724
0,0.621179
0,0.609246
0,0.597842
0,0.586833
0,0.576042
0,0.565280
0,0.554356
0,0.543099
0,0.531368
0,0.519057
0,0.506093
0,0.492422
0,0.478000
0,0.462770
0,0.446658
0,0.429564
0,0.411366
0,0.391941
0,0.371178
0,0.349020
0,0.325492
0,0.300737
0,0.275040
0,0.248851
0,0.222785
0,0.197616
0,0.174247
0,0.153670
0,0.136910
0,0.124957
0,0.118702
0,0.118861
0,0.125916
0,0.140071
0,0.161219
0,0.188939
0,0.222516
0,0.260980
0,0.303168
0,0.347795
0,0.393537
0,0.439108
0,0.483333
0,0.525206
0,0.563934
0,0.598958
0,0.629962
0,0.656859
0,0.679767
0,0.698974
0,0.714894
0,0.728020
0,0.738881
0,0.747996
0,0.755838
0,0.762804
0,0.769193
0,0.775194
0,0.780887
0,0.786250
0,0.791173
0,0.795484
0,0.798973
0,0.801418
0,0.802614
0,0.802393
0,0.800640
0,0.797306
0,0.792411
0,0.786042
0,0.778340
0,0.769495
0,0.759719
0,0.749235
0,0.738253
0,0.726957
0,0.715487
0,0.703930
0,0.692320
0,0.680633
0,0.668800
0,0.656719
0,0.644264
0,0.631311
0,0.617749
0,0.603495
0,0.588508
0,0.572793
0,0.556401
0,0.539421
0,0.521972
0,0.504188
0,0.486197
0,0.468105
0,0.449978
0,0.431833
0,0.413625
0,0.395251
0,0.376554
0,0.357344
0,0.337417
0,0.316593
0,0.294748
0,0.271859
0,0.248033
0,0.223543
0,0.198846
0,0.174579
0,0.151550
0,0.130697
0,0.113038
0,0.099603
0,0.091356
0,0.089120
0,0.093502
0,0.104840
0,0.123161
0,0.148163
0,0.179230
0,0.215462
0,0.255734
0,0.298768
0,0.343217
0,0.387749
0,0.431127
0,0.472278
0,0.510343
0,0.544707
0,0.575010
0,0.601136
0,0.623189
0,0.641455
0,0.656353
0,0.668388
0,0.678104
0,0.686036
0,0.692676
0,0.698446
0,0.703674
0,0.708591
0,0.713325
0,0.717908
0,0.722290
0,0.726352
0,0.729931
0,0.732836
0,0.734875
0,0.735873
0,0.735691
0,0.734287
0,0.731651
0,0.727792
0,0.722766
0,0.716669
0,0.709571
0,0.701577
0,0.692826
0,0.683450
0,0.673558
0,0.663239
0,0.652561
0,0.641572
0,0.630308
0,0.618797
0,0.607071
0,0.595169
0,0.583140
0,0.571048
0,0.558968
0,0.546979
0,0.535160
0,0.523578
0,0.512272
0,0.501247
0,0.490456
0,0.479795
0,0.469098
0,0.458139
0,0.446642
0,0.434295
0,0.420778
0,0.405791
0,0.389091
0,0.370523
0,0.350061
0,0.327833
0,0.304139
0,0.279469
0,0.254492
0,0.230040
0,0.207079
0,0.186665
0,0.169883
0,0.157787
0,0.151329
0,0.151292
0,0.158229
0,0.172406
0,0.193776
0,0.221962
0,0.256270
0,0.295722
0,0.339111
0,0.385078
0,0.432187
0,0.479018
0,0.524239
0,0.566684
0,0.605401
0,0.639692
0,0.669146
0,0.693673
0,0.713375
0,0.728571
0,0.739756
0,0.747535
0,0.752534
0,0.755460
0,0.756995
0,0.757752
0,0.758241
0,0.758843
0,0.759794
0,0.761186
0,0.762972
0,0.764991
0,0.766987
0,0.768645
0,0.769622
0,0.769584
0,0.768226
0,0.765304
0,0.760646
0,0.754161
0,0.745842
0,0.735758
0,0.724046
0,0.710896
0,0.696537
0,0.681218
0,0.665198
0,0.648732
0,0.632060
0,0.615406
0,0.598968
0,0.582920
0,0.567409
0,0.552554
0,0.538442
0,0.525126
0,0.512615
0,0.500872
0,0.489806
0,0.479272
0,0.469066
0,0.458936
0,0.448587
0,0.437696
0,0.425928
0,0.412955
0,0.398476
0,0.382242
0,0.364078
0,0.343906
0,0.321766
0,0.297838
0,0.272456
0,0.246116
0,0.219478
0,0.193358
0,0.168698
0,0.146538
0,0.127960
0,0.114029
0,0.105722
0,0.103860
0,0.109034
0,0.121557
0,0.141417
0,0.168267
0,0.201436
0,0.239960
0,0.282646
0,0.328144
0,0.375036
0,0.421925
0,0.467512
0,0.510666
0,0.550478
0,0.586286
0,0.617685
0,0.644521
0,0.666859
0,0.684948
0,0.699174
0,0.710016
0,0.717996
0,0.723640
0,0.727446
0,0.729858
0,0.731253
0,0.731933
0,0.732174
0,0.732168
0,0.732007
0,0.731732
0,0.731346
0,0.730773
0,0.729933
0,0.728776
0,0.727252
0,0.725311
0,0.722909
0,0.720003
0,0.716555
0,0.712521
0,0.707856
0,0.702510
0,0.696427
0,0.689549
0,0.681822
0,0.673197
0,0.663646
0,0.653162
0,0.641772
0,0.629540
0,0.616572
0,0.603015
0,0.589045
0,0.574867
0,0.560687
0,0.546705
0,0.533085
0,0.519945
0,0.507337
0,0.495240
0,0.483556
0,0.472114
0,0.460680
0,0.448975
0,0.436688
0,0.423507
0,0.409136
0,0.393326
0,0.375896
0,0.356760
0,0.335952
0,0.313646
0,0.290171
0,0.266017
0,0.241837
0,0.218426
0,0.196696
0,0.177634
0,0.162245
0,0.151497
0,0.146252
0,0.147206
0,0.154834
0,0.169346
0,0.190664
0,0.218412
0,0.251933
0,0.290314
0,0.332442
0,0.377060
0,0.422841
0,0.468457
0,0.512652
0,0.554307
0,0.592488
0,0.626484
0,0.655835
0,0.680329
0,0.700003
0,0.715114
0,0.726107
0,0.733574
0,0.738203
0,0.740725
0,0.741867
0,0.742297
0,0.742589
0,0.743185
0,0.744377
0,0.746298
0,0.748929
0,0.752112
0,0.755583
0,0.759003
0,0.761995
0,0.764185
0,0.765233
0,0.764862
0,0.762878
0,0.759176
0,0.753741
0,0.746635
0,0.737986
0,0.727964
0,0.716758
0,0.704560
0,0.691548
0,0.677872
0,0.663655
0,0.648987
0,0.633936
0,0.618549
0,0.602866
0,0.586929
0,0.570786
0,0.554500
0,0.538148
0,0.521819
0,0.505610
0,0.489613
0,0.473908
0,0.458553
0,0.443575
0,0.428959
0,0.414652
0,0.400557
0,0.386542
0,0.372447
0,0.358095
0,0.343312
0,0.327941
0,0.311871
0,0.295048
0,0.277504
0,0.259368
0,0.240879
0,0.222395
0,0.204385
0,0.187424
0,0.172171
0,0.159338
0,0.149658
0,0.143837
0,0.142510
0,0.146194
0,0.155240
0,0.169803
0,0.189811
0,0.214959
0,0.244710
0,0.278323
0,0.314888
0,0.353376
0,0.392704
0,0.431792
0,0.469633
0,0.505337
0,0.538183
0,0.567645
0,0.593401
0,0.615337
0,0.633530
0,0.648220
0,0.659780
0,0.668679
0,0.675441
0,0.680614
0,0.684728
0,0.688275
0,0.691672
0,0.695253
0,0.699246
0,0.703775
0,0.708858
0,0.714418
0,0.720300
0,0.726287
0,0.732129
0,0.737560
0,0.742320
0,0.746172
0,0.748913
0,0.750381
0,0.750458
0,0.749065
0,0.746166
0,0.741757
0,0.735860
0,0.728523
0,0.719811
0,0.709805
0,0.698603
0,0.686316
0,0.673078
0,0.659046
0,0.644400
0,0.629344
0,0.614097
0,0.598879
0,0.583897
0,0.569324
0,0.555277
0,0.541804
0,0.528873
0,0.516370
0,0.504098
0,0.491796
0,0.479148
0,0.465812
0,0.451439
0,0.435707
0,0.418344
0,0.399159
0,0.378069
0,0.355121
0,0.330514
0,0.304606
0,0.277917
0,0.251127
0,0.225052
0,0.200617
0,0.178821
0,0.160682
0,0.147189
0,0.139240
0,0.137578
0,0.142739
0,0.155001
0,0.174349
0,0.200459
0,0.232707
0,0.270191
0,0.311787
0,0.356209
0,0.402090
0,0.448060
0,0.492829
0,0.535254
0,0.574393
0,0.609544
0,0.640261
0,0.666350
0,0.687853
0,0.705009
0,0.718218
0,0.727987
0,0.734884
0,0.739494
0,0.742381
0,0.744054
0,0.744953
0,0.745430
0,0.745750
0,0.746087
0,0.746530
0,0.747096
0,0.747736
0,0.748348
0,0.748794
0,0.748911
0,0.748527
0,0.747474
0,0.745598
0,0.742770
0,0.738887
0,0.733879
0,0.727706
0,0.720359
0,0.711858
0,0.702251
0,0.691615
0,0.680058
0,0.667713
0,0.654741
0,0.641318
0,0.627633
0,0.613871
0,0.600203
0,0.586773
0,0.573692
0,0.561025
0,0.548792
0,0.536963
0,0.525462
0,0.514172
0,0.502944
0,0.491605
0,0.479969
0,0.467851
0,0.455077
0,0.441495
0,0.426982
0,0.411454
0,0.394870
0,0.377232
0,0.358593
0,0.339053
0,0.318767
0,0.297944
0,0.276853
0,0.255827
0,0.235265
0,0.215633
0,0.197460
0,0.181330
0,0.167861
0,0.157687
0,0.151416
0,0.149601
0,0.152688
0,0.160982
0,0.174606
0,0.193476
0,0.217286
0,0.245516
0,0.277451
0,0.312220
0,0.348853
0,0.386343
0,0.423709
0,0.460061
0,0.494648
0,0.526895
0,0.556426
0,0.583057
0,0.606786
0,0.627759
0,0.646232
0,0.662530
0,0.676999
0,0.689974
0,0.701741
0,0.712518
0,0.722442
0,0.731563
0,0.739854
0,0.747217
0,0.753508
0,0.758559
0,0.762197
0,0.764275
0,0.764691
0,0.763406
0,0.760452
0,0.755944
0,0.750067
0,0.743068
0,0.735242
0,0.726902
0,0.718360
0,0.709899
0,0.701748
0,0.694069
0,0.686941
0,0.680355
0,0.674222
0,0.668379
0,0.662605
0,0.656651
0,0.650252
0,0.643159
0,0.635158
0,0.626083
0,0.615830
0,0.604363
0,0.591710
0,0.577962
0,0.563257
0,0.547772
0,0.531701
0,0.515237
0,0.498551
0,0.481779
0,0.465007
0,0.448261
0,0.431510
0,0.414670
0,0.397617
0,0.380202
0,0.362277
0,0.343716
0,0.324440
0,0.304445
0,0.283817
0,0.262758
0,0.241593
0,0.220775
0,0.200879
0,0.182588
0,0.166657
0,0.153878
0,0.145024
0,0.140794
0,0.141754
0,0.148283
0,0.160532
0,0.178394
0,0.201498
0,0.229224
0,0.260732
0,0.295022
0,0.330991
0,0.367509
0,0.403490
0,0.437961
0,0.470115
0,0.499359
0,0.525332
0,0.547913
0,0.567205
0,0.583508
0,0.597273
0,0.609050
0,0.619431
0,0.628999
0,0.638272
0,0.647669
0,0.657474
0,0.667823
0,0.678703
0,0.689958
0,0.701314
0,0.712414
0,0.722855
0,0.732231
0,0.740173
0,0.746384
0,0.750664
0,0.752925
0,0.753193
0,0.751600
0,0.748363
0,0.743760
0,0.738098
0,0.731682
0,0.724788
0,0.717640
0,0.710393
0,0.703122
0,0.695826
0,0.688435
0,0.680822
0,0.672826
0,0.664272
0,0.655003
0,0.644895
0,0.633882
0,0.621967
0,0.609229
0,0.595814
0,0.581924
0,0.567795
0,0.553663
0,0.539735
0,0.526155
0,0.512979
0,0.500155
0,0.487517
0,0.474792
0,0.461622
0,0.447595
0,0.432287
0,0.415313
0,0.396378
0,0.375326
0,0.352183
0,0.327189
0,0.300817
0,0.273770
0,0.246963
0,0.221477
0,0.198507
0,0.179280
0,0.164978
0,0.156647
0,0.155120
0,0.160945
0,0.174338
0,0.195156
0,0.222900
0,0.256738
0,0.295559
0,0.338042
0,0.382741
0,0.428171
0,0.472902
0,0.515637
0,0.555278
0,0.590979
0,0.622170
0,0.648567
0,0.670161
0,0.687186
0,0.700080
0,0.709427
0,0.715907
0,0.720235
0,0.723112
0,0.725179
0,0.726979
0,0.728937
0,0.731342
0,0.734346
0,0.737969
0,0.742114
0,0.746586
0,0.751115
0,0.755389
0,0.759074
0,0.761846
0,0.763409
0,0.763518
0,0.761987
0,0.758698
0,0.753605
0,0.746724
0,0.738128
0,0.727937
0,0.716299
0,0.703384
0,0.689369
0,0.674430
0,0.658740
0,0.642464
0,0.625763
0,0.608797
0,0.591725
0,0.574711
0,0.557918
0,0.541510
0,0.525641
0,0.510445
0,0.496025
0,0.482442
0,0.469703
0,0.457751
0,0.446466
0,0.435658
0,0.425085
0,0.414453
0,0.403443
0,0.391732
0,0.379016
0,0.365041
0,0.349629
0,0.332706
0,0.314321
0,0.294660
0,0.274056
0,0.252985
0,0.232053
0,0.211977
0,0.193554
0,0.177621
0,0.165009
0,0.156323
0,0.152191
0,0.153153
0,0.159563
0,0.171554
0,0.189193
0,0.212174
0,0.239893
0,0.271546
0,0.306169
0,0.342703
0,0.380059
0,0.417186
0,0.453126
0,0.487073
0,0.518400
0,0.546690
0,0.571735
0,0.593529
0,0.612248
0,0.628216
0,0.641866
0,0.653698
0,0.664233
0,0.673971
0,0.683352
0,0.692720
0,0.702305
0,0.712202
0,0.722371
0,0.732643
0,0.742739
0,0.752302
0,0.760925
0,0.768196
0,0.773731
0,0.777214
0,0.778420
0,0.777239
0,0.773685
0,0.767896
0,0.760123
0,0.750707
0,0.740053
0,0.728597
0,0.716768
0,0.704955
0,0.693480
0,0.682572
0,0.672359
0,0.662865
0,0.654015
0,0.645658
0,0.637583
0,0.629554
0,0.621325
0,0.612677
0,0.603425
0,0.593438
0,0.582640
0,0.571007
0,0.558560
0,0.545345
0,0.531422
0,0.516843
0,0.501634
0,0.485789
0,0.469257
0,0.451951
0,0.433752
0,0.414533
0,0.394180
0,0.372627
0,0.349879
0,0.326050
0,0.301269
0,0.275851
0,0.250304
0,0.225278
0,0.201546
0,0.180084
0,0.161866
0,0.147806
0,0.138736
0,0.135337
0,0.138082
0,0.147188
0,0.162590
0,0.183930
0,0.210572
0,0.241641
0,0.276074
0,0.312696
0,0.350295
0,0.387703
0,0.423866
0,0.457910
0,0.489180
0,0.517264
0,0.541994
0,0.563425
0,0.581800
0,0.597503
0,0.611003
0,0.622799
0,0.633374
0,0.643151
0,0.652467
0,0.661553
0,0.670532
0,0.679430
0,0.688184
0,0.696673
0,0.704738
0,0.712217
0,0.718959
0,0.724852
0,0.729833
0,0.733888
0,0.737052
0,0.739390
0,0.740983
0,0.741908
0,0.742215
0,0.741915
0,0.740971
0,0.739296
0,0.736761
0,0.733209
0,0.728471
0,0.722385
0,0.714822
0,0.705696
0,0.694981
0,0.682719
0,0.669024
0,0.654075
0,0.638106
0,0.621398
0,0.604256
0,0.586991
0,0.569900
0,0.553242
0,0.537226
0,0.521988
0,0.507584
0,0.493979
0,0.481045
0,0.468564
0,0.456235
0,0.443690
0,0.430522
0,0.416315
0,0.400682
0,0.383309
0,0.364003
0,0.342726
0,0.319636
0,0.295104
0,0.269721
0,0.244284
0,0.219764
0,0.197261
0,0.177931
0,0.162921
0,0.153288
0,0.149917
0,0.153460
0,0.164273
0,0.182386
0,0.207483
0,0.238914
0,0.275724
0,0.316709
0,0.360482
0,0.405561
0,0.450451
0,0.493738
0,0.534167
0,0.570710
0,0.602619
0,0.629454
0,0.651092
0,0.667710
0,0.679749
0,0.687869
0,0.692878
0,0.695666
0,0.697134
0,0.698130
0,0.699382
0,0.701461
0,0.704743
0,0.709394
0,0.715375
0,0.722454
0,0.730242
0,0.738229
0,0.745838
0,0.752468
0,0.757548
0,0.760582
0,0.761180
0,0.759090
0,0.754216
0,0.746614
0,0.736494
0,0.724192
0,0.710151
0,0.694874
0,0.678896
0,0.662737
0,0.646865
0,0.631671
0,0.617440
0,0.604346
0,0.592444
0,0.581684
0,0.571924
0,0.562951
0,0.554508
0,0.546316
0,0.538097
0,0.529592
0,0.520570
0,0.510841
0,0.500252
0,0.488688
0,0.476063
0,0.462317
0,0.447404
0,0.431292
0,0.413959
0,0.395396
0,0.375618
0,0.354677
0,0.332683
0,0.309819
0,0.286362
0,0.262698
0,0.239326
0,0.216861
0,0.196013
0,0.177566
0,0.162338
0,0.151136
0,0.144706
0,0.143673
0,0.148497
0,0.159423
0,0.176454
0,0.199330
0,0.227532
0,0.260301
0,0.296677
0,0.335552
0,0.375735
0,0.416024
0,0.455274
0,0.492465
0,0.526753
0,0.557509
0,0.584347
0,0.607124
0,0.625934
0,0.641080
0,0.653037
0,0.662402
0,0.669842
0,0.676041
0,0.681638
0,0.687189
0,0.693122
0,0.699710
0,0.707065
0,0.715132
0,0.723711
0,0.732477
0,0.741021
0,0.748885
0,0.755607
0,0.760755
0,0.763967
0,0.764975
0,0.763627
0,0.759896
0,0.753881
0,0.745791
0,0.735930
0,0.724665
0,0.712399
0,0.699531
0,0.686434
0,0.673419
0,0.660723
0,0.648496
0,0.636803
0,0.625627
0,0.614886
0,0.604451
0,0.594169
0,0.583882
0,0.573448
0,0.562754
0,0.551727
0,0.540332
0,0.528569
0,0.516457
0,0.504022
0,0.491275
0,0.478196
0,0.464727
0,0.450762
0,0.436155
0,0.420732
0,0.404317
0,0.386753
0,0.367939
0,0.347860
0,0.326617
0,0.304448
0,0.281748
0,0.259071
0,0.237123
0,0.216739
0,0.198852
0,0.184438
0,0.174458
0,0.169787
0,0.171140
0,0.179011
0,0.193609
0,0.214826
0,0.242220
0,0.275030
0,0.312218
0,0.352529
0,0.394576
0,0.436933
0,0.478228
0,0.517233
0,0.552932
0,0.584577
0,0.611714
0,0.634189
0,0.652128
0,0.665901
0,0.676069
0,0.683325
0,0.688427
0,0.692140
0,0.695180
0,0.698168
0,0.701595
0,0.705799
0,0.710951
0,0.717060
0,0.723977
0,0.731415
0,0.738981
0,0.746202
0,0.752571
0,0.757585
0,0.760784
0,0.761790
0,0.760334
0,0.756280
0,0.749630
0,0.740522
0,0.729217
0,0.716068
0,0.701489
0,0.685919
0,0.669782
0,0.653455
0,0.637241
0,0.621356
0,0.605920
0,0.590967
0,0.576458
0,0.562304
0,0.548391
0,0.534608
0,0.520868
0,0.507129
0,0.493403
0,0.479755
0,0.466296
0,0.453164
0,0.440500
0,0.428421
0,0.416990
0,0.406190
0,0.395912
0,0.385945
0,0.375986
0,0.365657
0,0.354542
0,0.342227
0,0.328351
0,0.312652
0,0.295020
0,0.275532
0,0.254479
0,0.232373
0,0.209942
0,0.188098
0,0.167890
0,0.150441
0,0.136871
0,0.128214
0,0.125340
0,0.128881
0,0.139175
0,0.156230
0,0.179715
0,0.208977
0,0.243085
0,0.280895
0,0.321129
0,0.362464
0,0.403624
0,0.443451
0,0.480975
0,0.515456
0,0.546407
0,0.573593
0,0.597010
0,0.616856
0,0.633482
0,0.647346
0,0.658965
0,0.668869
0,0.677563
0,0.685492
0,0.693023
0,0.700420
0,0.707839
0,0.715326
0,0.722821
0,0.730171
0,0.737153
0,0.743500
0,0.748925
0,0.753157
0,0.755964
0,0.757182
0,0.756724
0,0.754593
0,0.750880
0,0.745752
0,0.739439
0,0.732208
0,0.724343
0,0.716122
0,0.707791
0,0.699551
0,0.691547
0,0.683861
0,0.676512
0,0.669463
0,0.662629
0,0.655891
0,0.649105
0,0.642121
0,0.634785
0,0.626954
0,0.618497
0,0.609295
0,0.599243
0,0.588246
0,0.576216
0,0.563068
0,0.548717
0,0.533081
0,0.516078
0,0.497638
0,0.477709
0,0.456272
0,0.433361
0,0.409085
0,0.383647
0,0.357368
0,0.330699
0,0.304232
0,0.278695
0,0.254936
0,0.233896
0,0.216563
0,0.203919
0,0.196876
0,0.196203
0,0.202464
0,0.215954
0,0.236659
0,0.264228
0,0.297977
0,0.336915
0,0.379793
0,0.425179
0,0.471547
0,0.517370
0,0.561221
0,0.601857
0,0.638289
0,0.669832
0,0.696127
0,0.717133
0,0.733104
0,0.744536
0,0.752106
0,0.756603
0,0.758854
0,0.759658
0,0.759726
0,0.759636
0,0.759799
0,0.760447
0,0.761633
0,0.763248
0,0.765048
0,0.766702
0,0.767827
0,0.768044
0,0.767015
0,0.764480
0,0.760280
0,0.754368
0,0.746807
0,0.737756
0,0.727452
0,0.716179
0,0.704241
0,0.691933
0,0.679517
0,0.667201
0,0.655123
0,0.643347
0,0.631864
0,0.620595
0,0.609408
0,0.598137
0,0.586598
0,0.574613
0,0.562034
0,0.548758
0,0.534741
0,0.520005
0,0.504635
0,0.488772
0,0.472588
0,0.456266
0,0.439962
0,0.423786
0,0.407770
0,0.391855
0,0.375891
0,0.359648
0,0.342839
0,0.325159
0,0.306330
0,0.286147
0,0.264521
0,0.241525
0,0.217413
0,0.192639
0,0.167854
0,0.143883
0,0.121692
0,0.102335
0,0.086888
0,0.076380
0,0.071710
0,0.073581
0,0.082430
0,0.098382
0,0.121219
0,0.150383
0,0.184996
0,0.223917
0,0.265807
0,0.309222
0,0.352706
0,0.394879
0,0.434521
0,0.470638
0,0.502503
0,0.529677
0,0.552012
0,0.569626
0,0.582865
0,0.592258
0,0.598455
0,0.602173
0,0.604144
0,0.605061
0,0.605544
0,0.606106
0,0.607141
0,0.608909
0,0.611544
0,0.615062
0,0.619383
0,0.624348
0,0.629750
0,0.635360
0,0.640949
0,0.646306
0,0.651263
0,0.655697
0,0.659541
0,0.662786
0,0.665477
0,0.667705
0,0.669598
0,0.671296
0,0.672942
0,0.674654
0,0.676507
0,0.678520
0,0.680648
0,0.682777
0,0.684733
0,0.686301
0,0.687238
0,0.687304
0,0.686280
0,0.683991
0,0.680319
0,0.675207
0,0.668658
0,0.660723
0,0.651483
0,0.641027
0,0.629427
0,0.616717
0,0.602876
0,0.587816
0,0.571381
0,0.553352
0,0.533473
0,0.511475
0,0.487121
0,0.460256
0,0.430862
0,0.399116
0,0.365434
0,0.330509
0,0.295322
0,0.261130
0,0.229417
0,0.201812
0,0.179985
0,0.165515
0,0.159753
0,0.163692
0,0.177857
0,0.202232
0,0.236233
0,0.278731
0,0.328119
0,0.382430
0,0.439475
0,0.497002
0,0.552854
0,0.605113
0,0.652213
0,0.693022
0,0.726880
0,0.753596
0,0.773414
0,0.786946
0,0.795085
0,0.798904
0,0.799557
0,0.798183
0,0.795818
0,0.793330
0,0.791366
0,0.790329
0,0.790367
0,0.791390
0,0.793105
0,0.795068
0,0.796743
0,0.797570
0,0.797029
0,0.794697
0,0.790296
0,0.783711
0,0.775002
0,0.764387
0,0.752214
0,0.738918
0,0.724971
0,0.710841
0,0.696943
0,0.683606
0,0.671055
0,0.659394
0,0.648607
0,0.638572
0,0.629075
0,0.619839
0,0.610547
0,0.600876
0,0.590524
0,0.579236
0,0.566826
0,0.553191
0,0.538317
0,0.522279
0,0.505234
0,0.487403
0,0.469048
0,0.450442
0,0.431846
0,0.413478
0,0.395488
0,0.377947
0,0.360834
0,0.344047
0,0.327413
0,0.310722
0,0.293757
0,0.276342
0,0.258384
0,0.239917
0,0.221137
0,0.202422
0,0.184337
0,0.167618
0,0.153139
0,0.141852
0,0.134721
0,0.132639
0,0.136353
0,0.146386
0,0.162976
0,0.186039
0,0.215156
0,0.249584
0,0.288301
0,0.330072
0,0.373529
0,0.417268
0,0.459937
0,0.500320
0,0.537410
0,0.570455
0,0.598982
0,0.622804
0,0.642000
0,0.656882
0,0.667942
0,0.675800
0,0.681145
0,0.684675
0,0.687051
0,0.688848
0,0.690531
0,0.692436
0,0.694760
0,0.697576
0,0.700840
0,0.704424
0,0.708138
0,0.711759
0,0.715062
0,0.717839
0,0.719914
0,0.721157
0,0.721483
0,0.720853
0,0.719266
0,0.716754
0,0.713365
0,0.709157
0,0.704185
0,0.698493
0,0.692103
0,0.685016
0,0.677202
0,0.668613
0,0.659184
0,0.648849
0,0.637550
0,0.625257
0,0.611982
0,0.597786
0,0.582792
0,0.567180
0,0.551181
0,0.535061
0,0.519099
0,0.503559
0,0.488663
0,0.474559
0,0.461305
0,0.448850
0,0.437034
0,0.425591
0,0.414170
0,0.402361
0,0.389726
0,0.375849
0,0.360368
0,0.343028
0,0.323714
0,0.302483
0,0.279592
0,0.255500
0,0.230864
0,0.206521
0,0.183449
0,0.162715
0,0.145415
0,0.132602
0,0.125211
0,0.123988
0,0.129424
0,0.141711
0,0.160706
0,0.185940
0,0.216627
0,0.251726
0,0.290000
0,0.330110
0,0.370701
0,0.410496
0,0.448378
0,0.483453
0,0.515088
0,0.542933
0,0.566914
0,0.587197
0,0.604151
0,0.618286
0,0.630197
0,0.640495
0,0.649763
0,0.658506
0,0.667118
0,0.675863
0,0.684871
0,0.694139
0,0.703550
0,0.712893
0,0.721899
0,0.730269
0,0.737708
0,0.743955
0,0.748810
0,0.752141
0,0.753904
0,0.754129
0,0.752921
0,0.750441
0,0.746887
0,0.742479
0,0.737437
0,0.731967
0,0.726244
0,0.720401
0,0.714518
0,0.708620
0,0.702674
0,0.696590
0,0.690235
0,0.683439
0,0.676013
0,0.667770
0,0.658540
0,0.648193
0,0.636653
0,0.623914
0,0.610042
0,0.595174
0,0.579508
0,0.563280
0,0.546739
0,0.530119
0,0.513606
0,0.497313
0,0.481265
0,0.465387
0,0.449509
0,0.433382
0,0.416708
0,0.399173
0,0.380493
0,0.360457
0,0.338976
0,0.316119
0,0.292144
0,0.267513
0,0.242889
0,0.219119
0,0.197194
0,0.178195
0,0.163221
0,0.153314
0,0.149379
0,0.152106
0,0.161914
0,0.178899
0,0.202819
0,0.233096
0,0.268841
0,0.308916
0,0.351993
0,0.396644
0,0.441424
0,0.484955
0,0.526006
0,0.563553
0,0.596827
0,0.625339
0,0.648893
0,0.667572
0,0.681706
0,0.691836
0,0.698650
0,0.702923
0,0.705452
0,0.706989
0,0.708194
0,0.709584
0,0.711518
0,0.714181
0,0.717599
0,0.721661
0,0.726147
0,0.730774
0,0.735227
0,0.739195
0,0.742400
0,0.744609
0,0.745648
0,0.745397
0,0.743787
0,0.740794
0,0.736426
0,0.730722
0,0.723741
0,0.715564
0,0.706290
0,0.696038
0,0.684944
0,0.673157
0,0.660839
0,0.648149
0,0.635243
0,0.622263
0,0.609328
0,0.596528
0,0.583927
0,0.571553
0,0.559410
0,0.547474
0,0.535702
0,0.524036
0,0.512406
0,0.500734
0,0.488933
0,0.476906
0,0.464549
0,0.451740
0,0.438343
0,0.424207
0,0.409173
0,0.393079
0,0.375779
0,0.357162
0,0.337173
0,0.315842
0,0.293306
0,0.269832
0,0.245828
0,0.221855
0,0.198612
0,0.176922
0,0.157693
0,0.141869
0,0.130376
0,0.124056
0,0.123601
0,0.129492
0,0.141956
0,0.160931
0,0.186058
0,0.216692
0,0.251936
0,0.290698
0,0.331756
0,0.373835
0,0.415684
0,0.456149
0,0.494234
0,0.529148
0,0.560332
0,0.587475
0,0.610500
0,0.629549
0,0.644945
0,0.657149
0,0.666719
0,0.674254
0,0.680356
0,0.685582
0,0.690413
0,0.695221
0,0.700257
0,0.705641
0,0.711361
0,0.717290
0,0.723207
0,0.728819
0,0.733801
0,0.737819
0,0.740565
0,0.741784
0,0.741296
0,0.739009
0,0.734926
0,0.729147
0,0.721859
0,0.713320
0,0.703837
0,0.693739
0,0.683353
0,0.672972
0,0.662832
0,0.653099
0,0.643853
0,0.635088
0,0.626723
0,0.618606
0,0.610539
0,0.602296
0,0.593645
0,0.584364
0,0.574262
0,0.563188
0,0.551039
0,0.537762
0,0.523350
0,0.507835
0,0.491278
0,0.473756
0,0.455352
0,0.436142
0,0.416189
0,0.395548
0,0.374262
0,0.352381
0,0.329976
0,0.307163
0,0.284126
0,0.261145
0,0.238609
0,0.217031
0,0.197041
0,0.179368
0,0.164811
0,0.154186
0,0.148269
0,0.147738
0,0.153104
0,0.164662
0,0.182453
0,0.206240
0,0.235512
0,0.269510
0,0.307271
0,0.347684
0,0.389567
0,0.431735
0,0.473071
0,0.512588
0,0.549473
0,0.583117
0,0.613129
0,0.639327
0,0.661727
0,0.680508
0,0.695980
0,0.708546
0,0.718660
0,0.726790
0,0.733388
0,0.738857
0,0.743534
0,0.747672
0,0.751433
0,0.754889
0,0.758028
0,0.760765
0,0.762959
0,0.764434
0,0.764999
0,0.764467
0,0.762681
0,0.759528
0,0.754951
0,0.748959
0,0.741625
0,0.733084
0,0.723520
0,0.713151
0,0.702212
0,0.690938
0,0.679545
0,0.668216
0,0.657092
0,0.646258
0,0.635741
0,0.625510
0,0.615480
0,0.605518
0,0.595462
0,0.585130
0,0.574345
0,0.562954
0,0.550842
0,0.537948
0,0.524265
0,0.509843
0,0.494772
0,0.479169
0,0.463155
0,0.446838
0,0.430287
0,0.413532
0,0.396547
0,0.379265
0,0.361588
0,0.343411
0,0.324652
0,0.305285
0,0.285371
0,0.265085
0,0.244738
0,0.224779
0,0.205791
0,0.188469
0,0.173584
0,0.161942
0,0.154326
0,0.151446
0,0.153881
0,0.162028
0,0.176069
0,0.195936
0,0.221313
0,0.251636
0,0.286123
0,0.323820
0,0.363651
0,0.404489
0,0.445214
0,0.484786
0,0.522292
0,0.556993
0,0.588347
0,0.616026
0,0.639907
0,0.660057
0,0.676703
0,0.690202
0,0.700993
0,0.709567
0,0.716420
0,0.722021
0,0.726788
0,0.731057
0,0.735078
0,0.739002
0,0.742886
0,0.746702
0,0.750346
0,0.753665
0,0.756468
0,0.758552
0,0.759720
0,0.759799
0,0.758655
0,0.756200
0,0.752401
0,0.747276
0,0.740891
0,0.733351
0,0.724786
0,0.715338
0,0.705151
0,0.694355
0,0.683059
0,0.671346
0,0.659273
0,0.646868
0,0.634135
0,0.621065
0,0.607639
0,0.593842
0,0.579672
0,0.565142
0,0.550296
0,0.535197
0,0.519934
0,0.504611
0,0.489333
0,0.474201
0,0.459289
0,0.444637
0,0.430237
0,0.416027
0,0.401889
0,0.387657
0,0.373124
0,0.358068
0,0.342275
0,0.325568
0,0.307841
0,0.289084
0,0.269414
0,0.249086
0,0.228511
0,0.208247
0,0.188987
0,0.171529
0,0.156741
0,0.145501
0,0.138644
0,0.136895
0,0.140807
0,0.150704
0,0.166644
0,0.188391
0,0.215419
0,0.246936
0,0.281931
0,0.319239
0,0.357621
0,0.395854
0,0.432807
0,0.467520
0,0.499258
0,0.527544
0,0.552174
0,0.573204
0,0.590914
0,0.605758
0,0.618304
0,0.629169
0,0.638952
0,0.648185
0,0.657288
0,0.666545
0,0.676093
0,0.685930
0,0.695934
0,0.705887
0,0.715512
0,0.724504
0,0.732562
0,0.739413
0,0.744832
0,0.748654
0,0.750782
0,0.751185
0,0.749895
0,0.747001
0,0.742636
0,0.736969
0,0.730191
0,0.722506
0,0.714110
0,0.705192
0,0.695913
0,0.686408
0,0.676779
0,0.667092
0,0.657386
0,0.647676
0,0.637956
0,0.628213
0,0.618428
0,0.608582
0,0.598656
0,0.588628
0,0.578472
0,0.568148
0,0.557599
0,0.546739
0,0.535452
0,0.523587
0,0.510958
0,0.497346
0,0.482514
0,0.466218
0,0.448234
0,0.428385
0,0.406572
0,0.382812
0,0.357271
0,0.330285
0,0.302384
0,0.274288
0,0.246894
0,0.221245
0,0.198480
0,0.179766
0,0.166227
0,0.158859
0,0.158449
0,0.165508
0,0.180212
0,0.202374
0,0.231440
0,0.266518
0,0.306427
0,0.349781
0,0.395074
0,0.440785
0,0.485472
0,0.527858
0,0.566900
0,0.601835
0,0.632205
0,0.657852
0,0.678893
0,0.695680
0,0.708742
0,0.718718
0,0.726294
0,0.732136
0,0.736840
0,0.740886
0,0.744617
0,0.748223
0,0.751753
0,0.755128
0,0.758172
0,0.760642
0,0.762270
0,0.762791
0,0.761975
0,0.759649
0,0.755712
0,0.750144
0,0.743002
0,0.734419
0,0.724588
0,0.713750
0,0.702177
0,0.690152
0,0.677950
0,0.665819
0,0.653965
0,0.642536
0,0.631616
0,0.621217
0,0.611289
0,0.601721
0,0.592362
0,0.583034
0,0.573553
0,0.563746
0,0.553464
0,0.542593
0,0.531059
0,0.518833
0,0.505921
0,0.492362
0,0.478214
0,0.463541
0,0.448400
0,0.432829
0,0.416834
0,0.400388
0,0.383431
0,0.365878
0,0.347636
0,0.328626
0,0.308809
0,0.288219
0,0.266986
0,0.245364
0,0.223743
0,0.202654
0,0.182762
0,0.164839
0,0.149729
0,0.138295
0,0.131362
0,0.129651
0,0.133718
0,0.143900
0,0.160276
0,0.182650
0,0.210545
0,0.243237
0,0.279790
0,0.319116
0,0.360050
0,0.401414
0,0.442094
0,0.481096
0,0.517597
0,0.550979
0,0.580841
0,0.607001
0,0.629477
0,0.648460
0,0.664275
0,0.677337
0,0.688107
0,0.697052
0,0.704602
0,0.711127
0,0.716913
0,0.722150
0,0.726933
0,0.731267
0,0.735085
0,0.738264
0,0.740650
0,0.742088
0,0.742435
0,0.741591
0,0.739502
0,0.736177
0,0.731683
0,0.726137
0,0.719700
0,0.712554
0,0.704888
0,0.696877
0,0.688669
0,0.680373
0,0.672050
0,0.663714
0,0.655336
0,0.646851
0,0.638168
0,0.629189
0,0.619811
0,0.609946
0,0.599527
0,0.588514
0,0.576899
0,0.564706
0,0.551993
0,0.538841
0,0.525352
0,0.511637
0,0.497801
0,0.483935
0,0.470094
0,0.456288
0,0.442472
0,0.428539
0,0.414325
0,0.399621
0,0.384190
0,0.367798
0,0.350248
0,0.331415
0,0.311282
0,0.289977
0,0.267794
0,0.245209
0,0.222881
0,0.201633
0,0.182420
0,0.166279
0,0.154263
0,0.147371
0,0.146468
0,0.152218
0,0.165017
0,0.184951
0,0.211769
0,0.244889
0,0.283420
0,0.326212
0,0.371925
0,0.419109
0,0.466292
0,0.512069
0,0.555176
0,0.594560
0,0.629427
0,0.659264
0,0.683851
0,0.703244
0,0.717748
0,0.727871
0,0.734267
0,0.737684
0,0.738900
0,0.738671
0,0.737682
0,0.736513
0,0.735617
0,0.735303
0,0.735745
0,0.736986
0,0.738963
0,0.741519
0,0.744436
0,0.747451
0,0.750277
0,0.752620
0,0.754192
0,0.754724
0,0.753972
0,0.751730
0,0.747830
0,0.742154
0,0.734633
0,0.725254
0,0.714062
0,0.701159
0,0.686706
0,0.670920
0,0.654065
0,0.636444
0,0.618383
0,0.600219
0,0.582276
0,0.564847
0,0.548178
0,0.532448
0,0.517761
0,0.504137
0,0.491514
0,0.479745
0,0.468612
0,0.457834
0,0.447083
0,0.435998
0,0.424212
0,0.411370
0,0.397156
0,0.381321
0,0.363704
0,0.344261
0,0.323083
0,0.300412
0,0.276658
0,0.252394
0,0.228356
0,0.205422
0,0.184575
0,0.166859
0,0.153317
0,0.144917
0,0.142480
0,0.146607
0,0.157621
0,0.175516
0,0.199944
0,0.230222
0,0.265365
0,0.304148
0,0.345191
0,0.387051
0,0.428318
0,0.467711
0,0.504156
0,0.536844
0,0.565268
0,0.589232
0,0.608837
0,0.624447
0,0.636630
0,0.646100
0,0.653641
0,0.660037
0,0.666008
0,0.672156
0,0.678920
0,0.686552
0,0.695114
0,0.704480
0,0.714372
0,0.724390
0,0.734060
0,0.742881
0,0.750372
0,0.756111
0,0.759765
0,0.761106
0,0.760026
0,0.756530
0,0.750735
0,0.742855
0,0.733183
0,0.722080
0,0.709950
0,0.697223
0,0.684327
0,0.671671
0,0.659613
0,0.648441
0,0.638350
0,0.629427
0,0.621646
0,0.614864
0,0.608831
0,0.603212
0,0.597606
0,0.591583
0,0.584714
0,0.576610
0,0.566949
0,0.555506
0,0.542167
0,0.526933
0,0.509918
0,0.491324
0,0.471422
0,0.450517
0,0.428916
0,0.406899
0,0.384702
0,0.362500
0,0.340421
0,0.318553
0,0.296977
0,0.275799
0,0.255186
0,0.235399
0,0.216814
0,0.199926
0,0.185345
0,0.173758
0,0.165893
0,0.162454
0,0.164062
0,0.171184
0,0.184082
0,0.202761
0,0.226950
0,0.256096
0,0.289383
0,0.325784
0,0.364116
0,0.403124
0,0.441560
0,0.478268
0,0.512257
0,0.542762
0,0.569284
0,0.591610
0,0.609808
0,0.624206
0,0.635349
0,0.643937
0,0.650768
0,0.656656
0,0.662371
0,0.668567
0,0.675734
0,0.684159
0,0.693908
0,0.704823
0,0.716545
0,0.728551
0,0.740200
0,0.750798
0,0.759658
0,0.766166
0,0.769836
0,0.770351
0,0.767597
0,0.761668
0,0.752858
0,0.741636
0,0.728602
0,0.714436
0,0.699837
0,0.685466
0,0.671893
0,0.659555
0,0.648727
0,0.639508
0,0.631826
0,0.625453
0,0.620038
0,0.615147
0,0.610306
0,0.605045
0,0.598942
0,0.591651
0,0.582930
0,0.572646
0,0.560772
0,0.547380
0,0.532612
0,0.516659
0,0.499735
0,0.482050
0,0.463792
0,0.445110
0,0.426112
0,0.406856
0,0.387361
0,0.367612
0,0.347584
0,0.327255
0,0.306637
0,0.285801
0,0.264900
0,0.244192
0,0.224053
0,0.204976
0,0.187567
0,0.172513
0,0.160550
0,0.152411
0,0.148770
0,0.150186
0,0.157045
0,0.169517
0,0.187525
0,0.210735
0,0.238563
0,0.270202
0,0.304678
0,0.340902
0,0.377748
0,0.414122
0,0.449035
0,0.481655
0,0.511359
0,0.537750
0,0.560669
0,0.580180
0,0.596536
0,0.610143
0,0.621503
0,0.631164
0,0.639668
0,0.647511
0,0.655108
0,0.662770
0,0.670701
0,0.678997
0,0.687657
0,0.696602
0,0.705689
0,0.714732
0,0.723516
0,0.731812
0,0.739386
0,0.746009
0,0.751464
0,0.755559
0,0.758130
0,0.759056
0,0.758258
0,0.755706
0,0.751420
0,0.745462
0,0.737936
0,0.728980
0,0.718759
0,0.707459
0,0.695282
0,0.682443
0,0.669161
0,0.655656
0,0.642144
0,0.628827
0,0.615885
0,0.603473
0,0.591702
0,0.580638
0,0.570287
0,0.560594
0,0.551432
0,0.542607
0,0.533856
0,0.524860
0,0.515251
0,0.504634
0,0.492606
0,0.478783
0,0.462825
0,0.444471
0,0.423564
0,0.400084
0,0.374176
0,0.346173
0,0.316609
0,0.286225
0,0.255958
0,0.226914
0,0.200320
0,0.177465
0,0.159620
0,0.147949
0,0.143421
0,0.146727
0,0.158210
0,0.177820
0,0.205101
0,0.239208
0,0.278955
0,0.322895
0,0.369418
0,0.416860
0,0.463615
0,0.508236
0,0.549518
0,0.586559
0,0.618792
0,0.645982
0,0.668208
0,0.685811
0,0.699332
0,0.709439
0,0.716848
0,0.722254
0,0.726270
0,0.729380
0,0.731915
0,0.734044
0,0.735787
0,0.737046
0,0.737640
0,0.737351
0,0.735973
0,0.733353
0,0.729413
0,0.724175
0,0.717754
0,0.710348
0,0.702207
0,0.693605
0,0.684800
0,0.676006
0,0.667368
0,0.658950
0,0.650736
0,0.642641
0,0.634532
0,0.626261
0,0.617685
0,0.608704
0,0.599272
0,0.589413
0,0.579217
0,0.568826
0,0.558414
0,0.548150
0,0.538170
0,0.528540
0,0.519235
0,0.510111
0,0.500911
0,0.491262
0,0.480703
0,0.468719
0,0.454791
0,0.438449
0,0.419333
0,0.397249
0,0.372216
0,0.344497
0,0.314621
0,0.283367
0,0.251741
0,0.220927
0,0.192217
0,0.166937
0,0.146358
0,0.131612
0,0.123615
0,0.123000
0,0.130074
0,0.144791
0,0.166750
0,0.195223
0,0.229195
0,0.267436
0,0.308572
0,0.351177
0,0.393851
0,0.435308
0,0.474436
0,0.510352
0,0.542434
0,0.570332
0,0.593964
0,0.613488
0,0.629264
0,0.641804
0,0.651718
0,0.659650
0,0.666234
0,0.672041
0,0.677542
0,0.683089
0,0.688897
0,0.695048
0,0.701498
0,0.708104
0,0.714644
0,0.720852
0,0.726449
0,0.731168
0,0.734781
0,0.737117
0,0.738070
0,0.737602
0,0.735743
0,0.732584
0,0.728260
0,0.722942
0,0.716817
0,0.710070
0,0.702870
0,0.695358
0,0.687629
0,0.679735
0,0.671678
0,0.663420
0,0.654890
0,0.646002
0,0.636669
0,0.626822
0,0.616424
0,0.605483
0,0.594052
0,0.582231
0,0.570150
0,0.557952
0,0.545764
0,0.533675
0,0.521704
0,0.509785
0,0.497750
0,0.485336
0,0.472196
0,0.457930
0,0.442123
0,0.424395
0,0.404453
0,0.382138
0,0.357469
0,0.330676
0,0.302212
0,0.272756
0,0.243190
0,0.214566
0,0.188044
0,0.164836
0,0.146117
0,0.132957
0,0.126235
0,0.126575
0,0.134286
0,0.149339
0,0.171348
0,0.199593
0,0.233061
0,0.270510
0,0.310546
0,0.351715
0,0.392590
0,0.431854
0,0.468382
0,0.501288
0,0.529972
0,0.554135
0,0.573774
0,0.589160
0,0.600795
0,0.609360
0,0.615652
0,0.620509
0,0.624753
0,0.629117
0,0.634198
0,0.640419
0,0.648001
0,0.656962
0,0.667129
0,0.678170
0,0.689635
0,0.701006
0,0.711755
0,0.721390
0,0.729500
0,0.735784
0,0.740065
0,0.742298
0,0.742549
0,0.740981
0,0.737819
0,0.733319
0,0.727735
0,0.721294
0,0.714170
0,0.706477
0,0.698265
0,0.689524
0,0.680200
0,0.670210
0,0.659463
0,0.647881
0,0.635418
0,0.622073
0,0.607894
0,0.592977
0,0.577461
0,0.561503
0,0.545263
0,0.528875
0,0.512429
0,0.495952
0,0.479402
0,0.462665
0,0.445574
0,0.427919
0,0.409485
0,0.390074
0,0.369546
0,0.347842
0,0.325020
0,0.301270
0,0.276936
0,0.252518
0,0.228674
0,0.206202
0,0.186020
0,0.169118
0,0.156511
0,0.149171
0,0.147957
0,0.153537
0,0.166328
0,0.186435
0,0.213618
0,0.247289
0,0.286527
0,0.330129
0,0.376679
0,0.424643
0,0.472461
0,0.518655
0,0.561913
0,0.601165
0,0.635637
0,0.664874
0,0.688740
0,0.707394
0,0.721244
0,0.730888
0,0.737048
0,0.740503
0,0.742029
0,0.742341
0,0.742056
0,0.741664
0,0.741512
0,0.741805
0,0.742609
0,0.743874
0,0.745452
0,0.747123
0,0.748623
0,0.749670
0,0.749988
0,0.749324
0,0.747470
0,0.744268
0,0.739620
0,0.733488
0,0.725893
0,0.716910
0,0.706657
0,0.695287
0,0.682975
0,0.669909
0,0.656275
0,0.642251
0,0.627996
0,0.613647
0,0.599311
0,0.585070
0,0.570973
0,0.557044
0,0.543282
0,0.529664
0,0.516148
0,0.502671
0,0.489157
0,0.475511
0,0.461618
0,0.447345
0,0.432540
0,0.417036
0,0.400663
0,0.383259
0,0.364688
0,0.344872
0,0.323809
0,0.301604
0,0.278491
0,0.254853
0,0.231223
0,0.208282
0,0.186840
0,0.167796
0,0.152094
0,0.140659
0,0.134333
0,0.133805
0,0.139553
0,0.151795
0,0.170453
0,0.195149
0,0.225212
0,0.259717
0,0.297540
0,0.337431
0,0.378095
0,0.418273
0,0.456825
0,0.492793
0,0.525455
0,0.554354
0,0.579300
0,0.600363
0,0.617836
0,0.632187
0,0.644004
0,0.653929
0,0.662605
0,0.670614
0,0.678442
0,0.686439
0,0.694810
0,0.703606
0,0.712737
0,0.721991
0,0.731063
0,0.739593
0,0.747198
0,0.753514
0,0.758224
0,0.761088
0,0.761959
0,0.760794
0,0.757648
0,0.752666
0,0.746063
0,0.738100
0,0.729058
0,0.719213
0,0.708812
0,0.698065
0,0.687130
0,0.676113
0,0.665074
0,0.654031
0,0.642975
0,0.631873
0,0.620686
0,0.609366
0,0.597865
0,0.586138
0,0.574137
0,0.561814
0,0.549114
0,0.535976
0,0.522331
0,0.508099
0,0.493192
0,0.477514
0,0.460968
0,0.443460
0,0.424910
0,0.405262
0,0.384501
0,0.362674
0,0.339903
0,0.316413
0,0.292546
0,0.268773
0,0.245698
0,0.224046
0,0.204641
0,0.188367
0,0.176115
0,0.168723
0,0.166908
0,0.171201
0,0.181894
0,0.198995
0,0.222214
0,0.250966
0,0.284397
0,0.321441
0,0.360889
0,0.401465
0,0.441913
0,0.481071
0,0.517944
0,0.551744
0,0.581926
0,0.608198
0,0.630507
0,0.649019
0,0.664077
0,0.676159
0,0.685824
0,0.693668
0,0.700268
0,0.706146
0,0.711735
0,0.717350
0,0.723178
0,0.729274
0,0.735569
0,0.741883
0,0.747952
0,0.753448
0,0.758016
0,0.761296
0,0.762958
0,0.762723
0,0.760386
0,0.755831
0,0.749038
0,0.740084
0,0.729135
0,0.716435
0,0.702287
0,0.687031
0,0.671024
0,0.654615
0,0.638131
0,0.621859
0,0.606036
0,0.590845
0,0.576410
0,0.562804
0,0.550050
0,0.538128
0,0.526980
0,0.516513
0,0.506602
0,0.497094
0,0.487801
0,0.478511
0,0.468983
0,0.458954
0,0.448150
0,0.436293
0,0.423123
0,0.408411
0,0.391986
0,0.373754
0,0.353722
0,0.332017
0,0.308901
0,0.284774
0,0.260182
0,0.235795
0,0.212398
0,0.190851
0,0.172055
0,0.156903
0,0.146227
0,0.140744
0,0.141007
0,0.147354
0,0.159881
0,0.178415
0,0.202522
0,0.231516
0,0.264500
0,0.300419
0,0.338119
0,0.376419
0,0.414178
0,0.450362
0,0.484094
0,0.514698
0,0.541722
0,0.564945
0,0.584377
0,0.600231
0,0.612899
0,0.622904
0,0.630861
0,0.637422
0,0.643237
0,0.648902
0,0.654929
0,0.661712
0,0.669508
0,0.678426
0,0.688425
0,0.699321
0,0.710802
0,0.722456
0,0.733797
0,0.744305
0,0.753458
0,0.760774
0,0.765843
0,0.768354
0,0.768116
0,0.765072
0,0.759296
0,0.750987
0,0.740452
0,0.728080
0,0.714318
0,0.699633
0,0.684487
0,0.669304
0,0.654449
0,0.640207
0,0.626774
0,0.614254
0,0.602660
0,0.591927
0,0.581922
0,0.572460
0,0.563316
0,0.554241
0,0.544971
0,0.535238
0,0.524773
0,0.513314
0,0.500609
0,0.486427
0,0.470568
0,0.452876
0,0.433257
0,0.411707
0,0.388328
0,0.363357
0,0.337180
0,0.310342
0,0.283545
0,0.257638
0,0.233583
0,0.212418
0,0.195198
0,0.182933
0,0.176520
0,0.176671
0,0.183851
0,0.198232
0,0.219659
0,0.247641
0,0.281375
0,0.319776
0,0.361553
0,0.405279
0,0.449487
0,0.492761
0,0.533824
0,0.571610
0,0.605323
0,0.634466
0,0.658852
0,0.678584
0,0.694025
0,0.705738
0,0.714423
0,0.720845
0,0.725767
0,0.729881
0,0.733759
0,0.737816
0,0.742287
0,0.747225
0,0.752517
0,0.757913
0,0.763063
0,0.767559
0,0.770984
0,0.772946
0,0.773116
0,0.771244
0,0.767180
0,0.760873
0,0.752367
0,0.741793
0,0.729351
0,0.715296
0,0.699913
0,0.683509
0,0.666387
0,0.648837
0,0.631125
0,0.613482
0,0.596100
0,0.579128
0,0.562671
0,0.546791
0,0.531512
0,0.516821
0,0.502677
0,0.489013
0,0.475746
0,0.462777
0,0.449998
0,0.437292
0,0.424532
0,0.411584
0,0.398302
0,0.384536
0,0.370131
0,0.354938
0,0.338829
0,0.321719
0,0.303583
0,0.284488
0,0.264616
0,0.244276
0,0.223922
0,0.204143
0,0.185643
0,0.169214
0,0.155690
0,0.145891
0,0.140569
0,0.140353
0,0.145697
0,0.156842
0,0.173791
0,0.196303
0,0.223905
0,0.255911
0,0.291471
0,0.329613
0,0.369307
0,0.409513
0,0.449239
0,0.487587
0,0.523789
0,0.557235
0,0.587484
0,0.614272
0,0.637499
0,0.657219
0,0.673613
0,0.686965
0,0.697634
0,0.706023
0,0.712550
0,0.717631
0,0.721648
0,0.724940
0,0.727787
0,0.730401
0,0.732926
0,0.735433
0,0.737928
0,0.740363
0,0.742639
0,0.744622
0,0.746158
0,0.747082
0,0.747230
0,0.746453
0,0.744627
0,0.741657
0,0.737483
0,0.732084
0,0.725477
0,0.717710
0,0.708862
0,0.699033
0,0.688338
0,0.676897
0,0.664833
0,0.652264
0,0.639304
0,0.626055
0,0.612612
0,0.599058
0,0.585460
0,0.571870
0,0.558314
0,0.544788
0,0.531252
0,0.517618
0,0.503753
0,0.489473
0,0.474554
0,0.458741
0,0.441771
0,0.423394
0,0.403406
0,0.381684
0,0.358215
0,0.333125
0,0.306705
0,0.279421
0,0.251912
0,0.224981
0,0.199557
0,0.176661
0,0.157340
0,0.142608
0,0.133371
0,0.130365
0,0.134093
0,0.144778
0,0.162338
0,0.186383
0,0.216227
0,0.250937
0,0.289383
0,0.330317
0,0.372442
0,0.414496
0,0.455312
0,0.493885
0,0.529407
0,0.561294
0,0.589197
0,0.612995
0,0.632774
0,0.648799
0,0.661479
0,0.671323
0,0.678903
0,0.684808
0,0.689608
0,0.693817
0,0.697868
0,0.702082
0,0.706660
0,0.711674
0,0.717070
0,0.722682
0,0.728248
0,0.733444
0,0.737905
0,0.741266
0,0.743185
0,0.743374
0,0.741616
0,0.737782
0,0.731833
0,0.723822
0,0.713882
0,0.702220
0,0.689094
0,0.674800
0,0.659652
0,0.643965
0,0.628041
0,0.612156
0,0.596551
0,0.581423
0,0.566927
0,0.553168
0,0.540204
0,0.528049
0,0.516676
0,0.506019
0,0.495979
0,0.486422
0,0.477188
0,0.468087
0,0.458903
0,0.449399
0,0.439320
0,0.428402
0,0.416384
0,0.403024
0,0.388120
0,0.371530
0,0.353202
0,0.333192
0,0.311694
0,0.289051
0,0.265768
0,0.242505
0,0.220067
0,0.199372
0,0.181415
0,0.167211
0,0.157735
0,0.153856
0,0.156271
0,0.165447
0,0.181570
0,0.204520
0,0.233856
0,0.268840
0,0.308464
0,0.351519
0,0.396659
0,0.442487
0,0.487637
0,0.530856
0,0.571062
0,0.607405
0,0.639297
0,0.666424
0,0.688741
0,0.706454
0,0.719975
0,0.729880
0,0.736845
0,0.741591
0,0.744820
0,0.747169
0,0.749167
0,0.751204
0,0.753523
0,0.756216
0,0.759243
0,0.762447
0,0.765591
0,0.768382
0,0.770507
0,0.771660
0,0.771564
0,0.769993
0,0.766782
0,0.761837
0,0.755131
0,0.746710
0,0.736676
0,0.725188
0,0.712444
0,0.698672
0,0.684116
0,0.669028
0,0.653651
0,0.638213
0,0.622918
0,0.607933
0,0.593390
0,0.579372
0,0.565920
0,0.553030
0,0.540652
0,0.528699
0,0.517049
0,0.505552
0,0.494035
0,0.482307
0,0.470170
0,0.457420
0,0.443861
0,0.429310
0,0.413611
0,0.396648
0,0.378359
0,0.358750
0,0.337914
0,0.316040
0,0.293429
0,0.270492
0,0.247754
0,0.225840
0,0.205460
0,0.187377
0,0.172368
0,0.161186
0,0.154502
0,0.152867
0,0.156661
0,0.166063
0,0.181030
0,0.201292
0,0.226362
0,0.255566
0,0.288083
0,0.322995
0,0.359342
0,0.396174
0,0.432600
0,0.467828
0,0.501196
0,0.532193
0,0.560461
0,0.585801
0,0.608159
0,0.627612
0,0.644347
0,0.658638
0,0.670819
0,0.681258
0,0.690330
0,0.698393
0,0.705759
0,0.712682
0,0.719334
0,0.725804
0,0.732093
0,0.738120
0,0.743737
0,0.748751
0,0.752940
0,0.756084
0,0.757983
0,0.758479
0,0.757472
0,0.754923
0,0.750863
0,0.745382
0,0.738620
0,0.730751
0,0.721966
0,0.712451
0,0.702372
0,0.691857
0,0.680995
0,0.669828
0,0.658356
0,0.646547
0,0.634351
0,0.621716
0,0.608600
0,0.594991
0,0.580909
0,0.566416
0,0.551611
0,0.536620
0,0.521587
0,0.506648
0,0.491913
0,0.477445
0,0.463245
0,0.449236
0,0.435266
0,0.421114
0,0.406509
0,0.391155
0,0.374768
0,0.357113
0,0.338041
0,0.317528
0,0.295700
0,0.272854
0,0.249463
0,0.226168
0,0.203754
0,0.183113
0,0.165192
0,0.150941
0,0.141247
0,0.136876
0,0.138418
0,0.146244
0,0.160471
0,0.180952
0,0.207270
0,0.238763
0,0.274557
0,0.313620
0,0.354816
0,0.396974
0,0.438956
0,0.479712
0,0.518334
0,0.554094
0,0.586461
0,0.615113
0,0.639926
0,0.660955
0,0.678405
0,0.692595
0,0.703924
0,0.712835
0,0.719779
0,0.725192
0,0.729464
0,0.732930
0,0.735851
0,0.738414
0,0.740726
0,0.742817
0,0.744652
0,0.746135
0,0.747126
0,0.747456
0,0.746941
0,0.745400
0,0.742675
0,0.738639
0,0.733217
0,0.726389
0,0.718197
0,0.708742
0,0.698180
0,0.686709
0,0.674552
0,0.661942
0,0.649101
0,0.636225
0,0.623472
0,0.610952
0,0.598727
0,0.586810
0,0.575178
0,0.563776
0,0.552536
0,0.541382
0,0.530242
0,0.519053
0,0.507758
0,0.496305
0,0.484642
0,0.472709
0,0.460430
0,0.447714
0,0.434450
0,0.420514
0,0.405776
0,0.390113
0,0.373421
0,0.355638
0,0.336759
0,0.316855
0,0.296097
0,0.274761
0,0.253246
0,0.232072
0,0.211873
0,0.193379
0,0.177387
0,0.164725
0,0.156201
0,0.152550
0,0.154375
0,0.162100
0,0.175919
0,0.195770
0,0.221320
0,0.251980
0,0.286930
0,0.325168
0,0.365577
0,0.406987
0,0.448250
0,0.488304
0,0.526227
0,0.561280
0,0.592928
0,0.620855
0,0.644956
0,0.665319
0,0.682198
0,0.695975
0,0.707117
0,0.716137
0,0.723545
0,0.729812
0,0.735339
0,0.740431
0,0.745288
0,0.749997
0,0.754548
0,0.758843
0,0.762725
0,0.766000
0,0.768466
0,0.769935
0,0.770255
0,0.769319
0,0.767072
0,0.763508
0,0.758666
0,0.752616
0,0.745450
0,0.737269
0,0.728177
0,0.718272
0,0.707646
0,0.696383
0,0.684560
0,0.672249
0,0.659519
0,0.646436
0,0.633062
0,0.619455
0,0.605664
0,0.591735
0,0.577702
0,0.563594
0,0.549429
0,0.535217
0,0.520955
0,0.506626
0,0.492193
0,0.477596
0,0.462745
0,0.447523
0,0.431785
0,0.415369
0,0.398108
0,0.379852
0,0.360494
0,0.339992
0,0.318403
0,0.295904
0,0.272807
0,0.249569
0,0.226788
0,0.205182
0,0.185562
0,0.168787
0,0.155715
0,0.147148
0,0.143772
0,0.146106
0,0.154461
0,0.168903
0,0.189241
0,0.215032
0,0.245595
0,0.280056
0,0.317391
0,0.356488
0,0.396212
0,0.435467
0,0.473258
0,0.508734
0,0.541231
0,0.570293
0,0.595676
0,0.617344
0,0.635447
0,0.650290
0,0.662296
0,0.671965
0,0.679829
0,0.686412
0,0.692194
0,0.697579
0,0.702873
0,0.708268
0,0.713838
0,0.719548
0,0.725265
0,0.730780
0,0.735835
0,0.740153
0,0.743462
0,0.745521
0,0.746141
0,0.745194
0,0.742627
0,0.738452
0,0.732752
0,0.725660
0,0.717355
0,0.708044
0,0.697948
0,0.687289
0,0.676278
0,0.665106
0,0.653938
0,0.642902
0,0.632092
0,0.621561
0,0.611321
0,0.601347
0,0.591574
0,0.581908
0,0.572220
0,0.562361
0,0.552161
0,0.541437
0,0.530001
0,0.517668
0,0.504258
0,0.489610
0,0.473590
0,0.456093
0,0.437061
0,0.416486
0,0.394422
0,0.370995
0,0.346409
0,0.320959
0,0.295030
0,0.269099
0,0.243734
0,0.219578
0,0.197337
0,0.177748
0,0.161555
0,0.149464
0,0.142113
0,0.140021
0,0.143562
0,0.152926
0,0.168101
0,0.188862
0,0.214774
0,0.245210
0,0.279380
0,0.316370
0,0.355189
0,0.394821
0,0.434289
0,0.472708
0,0.509312
0,0.543476
0,0.574743
0,0.602818
0,0.627550
0,0.648942
0,0.667134
0,0.682371
0,0.694982
0,0.705345
0,0.713861
0,0.720926
0,0.726908
0,0.732124
0,0.736831
0,0.741210
0,0.745372
0,0.749355
0,0.753133
0,0.756628
0,0.759721
0,0.762269
0,0.764116
0,0.765109
0,0.765109
0,0.764002
0,0.761704
0,0.758166
0,0.753377
0,0.747360
0,0.740169
0,0.731882
0,0.722592
0,0.712402
0,0.701416
0,0.689729
0,0.677422
0,0.664563
0,0.651197
0,0.637357
0,0.623059
0,0.608319
0,0.593149
0,0.577573
0,0.561633
0,0.545386
0,0.528913
0,0.512309
0,0.495680
0,0.479128
0,0.462742
0,0.446581
0,0.430665
0,0.414964
0,0.399399
0,0.383842
0,0.368128
0,0.352069
0,0.335482
0,0.318211
0,0.300155
0,0.281303
0,0.261750
0,0.241723
0,0.221586
0,0.201846
0,0.183135
0,0.166183
0,0.151788
0,0.140760
0,0.133871
0,0.131794
0,0.135050
0,0.143961
0,0.158610
0,0.178827
0,0.204184
0,0.234015
0,0.267460
0,0.303509
0,0.341077
0,0.379064
0,0.416429
0,0.452246
0,0.485770
0,0.516463
0,0.543984
0,0.568196
0,0.589147
0,0.607024
0,0.622135
0,0.634883
0,0.645734
0,0.655173
0,0.663669
0,0.671649
0,0.679466
0,0.687381
0,0.695553
0,0.704032
0,0.712766
0,0.721613
0,0.730357
0,0.738733
0,0.746453
0,0.753233
0,0.758818
0,0.763006
0,0.765655
0,0.766696
0,0.766130
0,0.764021
0,0.760477
0,0.755639
0,0.749659
0,0.742687
0,0.734853
0,0.726266
0,0.717006
0,0.707129
0,0.696675
0,0.685669
0,0.674141
0,0.662124
0,0.649670
0,0.636845
0,0.623736
0,0.610444
0,0.597077
0,0.583738
0,0.570518
0,0.557473
0,0.544620
0,0.531916
0,0.519257
0,0.506471
0,0.493324
0,0.479530
0,0.464772
0,0.448730
0,0.431113
0,0.411699
0,0.390370
0,0.367149
0,0.342220
0,0.315957
0,0.288918
0,0.261845
0,0.235634
0,0.211299
0,0.189917
0,0.172567
0,0.160254
0,0.153845
0,0.153997
0,0.161102
0,0.175254
0,0.196222
0,0.223463
0,0.256142
0,0.293182
0,0.333329
0,0.375224
0,0.417489
0,0.458805
0,0.497992
0,0.534066
0,0.566293
0,0.594215
0,0.617655
0,0.636708
0,0.651712
0,0.663197
0,0.671832
0,0.678364
0,0.683547
0,0.688086
0,0.692579
0,0.697476
0,0.703048
0,0.709377
0,0.716358
0,0.723722
0,0.731077
0,0.737950
0,0.743842
0,0.748283
0,0.750875
0,0.751331
0,0.749493
0,0.745347
0,0.739005
0,0.730697
0,0.720732
0,0.709469
0,0.697280
0,0.684516
0,0.671482
0,0.658418
0,0.645488
0,0.632781
0,0.620321
0,0.608080
0,0.595992
0,0.583977
0,0.571954
0,0.559858
0,0.547644
0,0.535296
0,0.522825
0,0.510263
0,0.497654
0,0.485046
0,0.472473
0,0.459948
0,0.447449
0,0.434916
0,0.422243
0,0.409288
0,0.395879
0,0.381827
0,0.366952
0,0.351100
0,0.334172
0,0.316147
0,0.297099
0,0.277224
0,0.256842
0,0.236403
0,0.216484
0,0.197773
0,0.181045
0,0.167128
0,0.156858
0,0.151034
0,0.150360
0,0.155394
0,0.166494
0,0.183775
0,0.207086
0,0.235995
0,0.269799
0,0.307565
0,0.348172
0,0.390390
0,0.432954
0,0.474640
0,0.514348
0,0.551156
0,0.584364
0,0.613525
0,0.638443
0,0.659162
0,0.675936
0,0.689190
0,0.699469
0,0.707387
0,0.713574
0,0.718631
0,0.723085
0,0.727355
0,0.731733
0,0.736369
0,0.741276
0,0.746341
0,0.751349
0,0.756010
0,0.759997
0,0.762980
0,0.764659
0,0.764792
0,0.763221
0,0.759881
0,0.754807
0,0.748124
0,0.740040
0,0.730821
0,0.720768
0,0.710190
0,0.699383
0,0.688600
0,0.678040
0,0.667835
0,0.658043
0,0.648656
0,0.639600
0,0.630759
0,0.621982
0,0.613108
0,0.603977
0,0.594448
0,0.584406
0,0.573768
0,0.562485
0,0.550538
0,0.537932
0,0.524688
0,0.510834
0,0.496394
0,0.481384
0,0.465799
0,0.449616
0,0.432787
0,0.415245
0,0.396917
0,0.377728
0,0.357627
0,0.336603
0,0.314711
0,0.292093
0,0.268995
0,0.245788
0,0.222968
0,0.201153
0,0.181064
0,0.163499
0,0.149287
0,0.139236
0,0.134081
0,0.134416
0,0.140648
0,0.152949
0,0.171226
0,0.195115
0,0.223989
0,0.256993
0,0.293093
0,0.331138
0,0.369939
0,0.408332
0,0.445254
0,0.479800
0,0.511261
0,0.539156
0,0.563237
0,0.583485
0,0.600082
0,0.613383
0,0.623873
0,0.632120
0,0.638732
0,0.644312
0,0.649420
0,0.654539
0,0.660048
0,0.666206
0,0.673141
0,0.680850
0,0.689207
0,0.697980
0,0.706850
0,0.715446
0,0.723369
0,0.730232
0,0.735689
0,0.739461
0,0.741362
0,0.741305
0,0.739310
0,0.735493
0,0.730052
0,0.723240
0,0.715342
0,0.706641
0,0.697398
0,0.687824
0,0.678067
0,0.668205
0,0.658246
0,0.648140
0,0.637794
0,0.627102
0,0.615964
0,0.604315
0,0.592145
0,0.579506
0,0.566513
0,0.553331
0,0.540150
0,0.527155
0,0.514490
0,0.502227
0,0.490336
0,0.478669
0,0.466962
0,0.454843
0,0.441864
0,0.427543
0,0.411421
0,0.393119
0,0.372407
0,0.349256
0,0.323891
0,0.296818
0,0.268831
0,0.240989
0,0.214573
0,0.191007
0,0.171769
0,0.158282
0,0.151798
0,0.153296
0,0.163388
0,0.182257
0,0.209622
0,0.244744
0,0.286466
0,0.333287
0,0.383463
0,0.435130
0,0.486424
0,0.535602
0,0.581152
0,0.621872
0,0.656928
0,0.685876
0,0.708659
0,0.725572
0,0.737205
0,0.744371
0,0.748024
0,0.749169
0,0.748780
0,0.747729
0,0.746729
0,0.746290
0,0.746703
0,0.748042
0,0.750178
0,0.752818
0,0.755551
0,0.757899
0,0.759371
0,0.759512
0,0.757947
0,0.754407
0,0.748753
0,0.740977
0,0.731195
0,0.719636
0,0.706612
0,0.692495
0,0.677683
0,0.662573
0,0.647526
0,0.632854
0,0.618792
0,0.605493
0,0.593024
0,0.581365
0,0.570422
0,0.560038
0,0.550010
0,0.540103
0,0.530070
0,0.519660
0,0.508633
0,0.496766
0,0.483863
0,0.469760
0,0.454328
0,0.437487
0,0.419206
0,0.399513
0,0.378503
0,0.356341
0,0.333267
0,0.309598
0,0.285725
0,0.262114
0,0.239293
0,0.217844
0,0.198393
0,0.181586
0,0.168068
0,0.158461
0,0.153325
0,0.153131
0,0.158222
0,0.168785
0,0.184816
0,0.206108
0,0.232241
0,0.262589
0,0.296345
0,0.332561
0,0.370196
0,0.408176
0,0.445458
0,0.481083
0,0.514232
0,0.544262
0,0.570725
0,0.593383
0,0.612200
0,0.627323
0,0.639059
0,0.647846
0,0.654216
0,0.658758
0,0.662090
0,0.664820
0,0.667517
0,0.670684
0,0.674731
0,0.679959
0,0.686538
0,0.694502
0,0.703747
0,0.714030
0,0.724986
0,0.736147
0,0.746968
0,0.756862
0,0.765236
0,0.771531
0,0.775258
0,0.776033
0,0.773607
0,0.767880
0,0.758917
0,0.746944
0,0.732330
0,0.715566
0,0.697229
0,0.677942
0,0.658331
0,0.638984
0,0.620412
0,0.603023
0,0.587104
0,0.572809
0,0.560161
0,0.549063
0,0.539311
0,0.530614
0,0.522619
0,0.514927
0,0.507120
0,0.498777
0,0.489494
0,0.478899
0,0.466667
0,0.452534
0,0.436306
0,0.417879
0,0.397242
0,0.374503
0,0.349889
0,0.323767
0,0.296645
0,0.269176
0,0.242145
0,0.216456
0,0.193095
0,0.173093
0,0.157469
0,0.147169
0,0.143003
0,0.145579
0,0.155246
0,0.172054
0,0.195730
0,0.225673
0,0.260982
0,0.300503
0,0.342896
0,0.386717
0,0.430513
0,0.472908
0,0.512687
0,0.548861
0,0.580713
0,0.607821
0,0.630061
0,0.647586
0,0.660791
0,0.670256
0,0.676695
0,0.680881
0,0.683588
0,0.685529
0,0.687312
0,0.689393
0,0.692064
0,0.695441
0,0.699471
0,0.703957
0,0.708587
0,0.712973
0,0.716696
0,0.719348
0,0.720569
0,0.720080
0,0.717702
0,0.713368
0,0.707119
0,0.699091
0,0.689494
0,0.678588
0,0.666656
0,0.653980
0,0.640825
0,0.627423
0,0.613968
0,0.600615
0,0.587482
0,0.574650
0,0.562171
0,0.550068
0,0.538336
0,0.526945
0,0.515839
0,0.504940
0,0.494148
0,0.483343
0,0.472386
0,0.461124
0,0.449390
0,0.437006
0,0.423789
0,0.409555
0,0.394137
0,0.377390
0,0.359222
0,0.339607
0,0.318616
0,0.296438
0,0.273396
0,0.249961
0,0.226751
0,0.204521
0,0.184140
0,0.166552
0,0.152732
0,0.143623
0,0.140078
0,0.142792
0,0.152243
0,0.168639
0,0.191887
0,0.221569
0,0.256959
0,0.297054
0,0.340626
0,0.386304
0,0.432654
0,0.478270
0,0.521862
0,0.562327
0,0.598806
0,0.630715
0,0.657759
0,0.679920
0,0.697425
0,0.710708
0,0.720354
0,0.727042
0,0.731489
0,0.734399
0,0.736415
0,0.738091
0,0.739857
0,0.742016
0,0.744733
0,0.748043
0,0.751865
0,0.756021
0,0.760257
0,0.764265
0,0.767713
0,0.770263
0,0.771594
0,0.771425
0,0.769528
0,0.765750
0,0.760017
0,0.752344
0,0.742835
0,0.731670
0,0.719093
0,0.705395
0,0.690890
0,0.675893
0,0.660701
0,0.645575
0,0.630727
0,0.616311
0,0.602416
0,0.589068
0,0.576231
0,0.563815
0,0.551678
0,0.539644
0,0.527508
0,0.515049
0,0.502039
0,0.488255
0,0.473487
0,0.457549
0,0.440287
0,0.421589
0,0.401398
0,0.379725
0,0.356663
0,0.332398
0,0.307227
0,0.281562
0,0.255938
0,0.231008
0,0.207530
0,0.186347
0,0.168350
0,0.154434
0,0.145443
0,0.142113
0,0.145011
0,0.154485
0,0.170619
0,0.193214
0,0.221782
0,0.255569
0,0.293593
0,0.334706
0,0.377662
0,0.421196
0,0.464093
0,0.505261
0,0.543779
0,0.578937
0,0.610256
0,0.637490
0,0.660610
0,0.679781
0,0.695320
0,0.707656
0,0.717277
0,0.724689
0,0.730372
0,0.734743
0,0.738136
0,0.740785
0,0.742825
0,0.744296
0,0.745168
0,0.745355
0,0.744748
0,0.743238
0,0.740734
0,0.737184
0,0.732578
0,0.726957
0,0.720400
0,0.713017
0,0.704934
0,0.696273
0,0.687136
0,0.677595
0,0.667685
0,0.657399
0,0.646702
0,0.635536
0,0.623841
0,0.611568
0,0.598694
0,0.585239
0,0.571267
0,0.556886
0,0.542249
0,0.527533
0,0.512929
0,0.498620
0,0.484759
0,0.471450
0,0.458733
0,0.446569
0,0.434838
0,0.423339
0,0.411804
0,0.399910
0,0.387315
0,0.373682
0,0.358719
0,0.342218
0,0.324092
0,0.304411
0,0.283424
0,0.261576
0,0.239506
0,0.218027
0,0.198097
0,0.180760
0,0.167084
0,0.158084
0,0.154645
0,0.157447
0,0.166902
0,0.183114
0,0.205852
0,0.234565
0,0.268406
0,0.306288
0,0.346959
0,0.389087
0,0.431339
0,0.472474
0,0.511408
0,0.547272
0,0.579446
0,0.607572
0,0.631550
0,0.651508
0,0.667768
0,0.680790
0,0.691128
0,0.699369
0,0.706088
0,0.711808
0,0.716966
0,0.721896
0,0.726813
0,0.731820
0,0.736914
0,0.742006
0,0.746942
0,0.751531
0,0.755567
0,0.758852
0,0.761216
0,0.762524
0,0.762685
0,0.761645
0,0.759384
0,0.755906
0,0.751225
0,0.745358
0,0.738322
0,0.730124
0,0.720774
0,0.710283
0,0.698678
0,0.686008
0,0.672350
0,0.657818
0,0.642560
0,0.626754
0,0.610597
0,0.594299
0,0.578063
0,0.562076
0,0.546494
0,0.531430
0,0.516947
0,0.503051
0,0.489687
0,0.476742
0,0.464042
0,0.451367
0,0.438454
0,0.425021
0,0.410778
0,0.395455
0,0.378824
0,0.360725
0,0.341095
0,0.319984
0,0.297581
0,0.274219
0,0.250383
0,0.226698
0,0.203913
0,0.182866
0,0.164442
0,0.149519
0,0.138908
0,0.133294
0,0.133177
0,0.138829
0,0.150263
0,0.167223
0,0.189198
0,0.215456
0,0.245096
0,0.277114
0,0.310481
0,0.344207
0,0.377409
0,0.409355
0,0.439500
0,0.467491
0,0.493161
0,0.516508
0,0.537657
0,0.556821
0,0.574264
0,0.590266
0,0.605094
0,0.618984
0,0.632131
0,0.644688
0,0.656762
0,0.668419
0,0.679688
0,0.690556
0,0.700977
0,0.710864
0,0.720105
0,0.728560
0,0.736086
0,0.742541
0,0.747804
0,0.751789
0,0.754446
0,0.755774
0,0.755807
0,0.754615
0,0.752286
0,0.748918
0,0.744605
0,0.739429
0,0.733452
0,0.726718
0,0.719250
0,0.711063
0,0.702163
0,0.692562
0,0.682279
0,0.671349
0,0.659820
0,0.647752
0,0.635211
0,0.622260
0,0.608952
0,0.595318
0,0.581356
0,0.567030
0,0.552261
0,0.536932
0,0.520887
0,0.503943
0,0.485905
0,0.466582
0,0.445814
0,0.423497
0,0.399613
0,0.374262
0,0.347689
0,0.320300
0,0.292676
0,0.265568
0,0.239872
0,0.216595
0,0.196802
0,0.181546
0,0.171793
0,0.168354
0,0.171804
0,0.182437
0,0.200222
0,0.224796
0,0.255476
0,0.291301
0,0.331093
0,0.373536
0,0.417263
0,0.460944
0,0.503360
0,0.543473
0,0.580465
0,0.613762
0,0.643041
0,0.668211
0,0.689384
0,0.706839
0,0.720975
0,0.732265
0,0.741208
0,0.748288
0,0.753940
0,0.758523
0,0.762299
0,0.765426
0,0.767959
0,0.769854
0,0.770993
0,0.771199
0,0.770270
0,0.768004
0,0.764226
0,0.758815
0,0.751717
0,0.742956
0,0.732635
0,0.720926
0,0.708063
0,0.694318
0,0.679983
0,0.665353
0,0.650700
0,0.636259
0,0.622215
0,0.608697
0,0.595771
0,0.583448
0,0.571687
0,0.560409
0,0.549504
0,0.538848
0,0.528309
0,0.517758
0,0.507074
0,0.496143
0,0.484858
0,0.473118
0,0.460822
0,0.447862
0,0.434126
0,0.419498
0,0.403861
0,0.387115
0,0.369187
0,0.350054
0,0.329765
0,0.308459
0,0.286389
0,0.263928
0,0.241580
0,0.219972
0,0.199841
0,0.182004
0,0.167317
0,0.156629
0,0.150721
0,0.150248
0,0.155682
0,0.167262
0,0.184960
0,0.208469
0,0.237203
0,0.270334
0,0.306840
0,0.345568
0,0.385315
0,0.424904
0,0.463255
0,0.499451
0,0.532778
0,0.562751
0,0.589124
0,0.611871
0,0.631158
0,0.647309
0,0.660753
0,0.671982
0,0.681504
0,0.689799
0,0.697295
0,0.704338
0,0.711180
0,0.717972
0,0.724765
0,0.731519
0,0.738114
0,0.744369
0,0.750056
0,0.754926
0,0.758728
0,0.761227
0,0.762228
0,0.761586
0,0.759220
0,0.755117
0,0.749335
0,0.741993
0,0.733264
0,0.723361
0,0.712519
0,0.700977
0,0.688964
0,0.676685
0,0.664310
0,0.651969
0,0.639746
0,0.627684
0,0.615786
0,0.604024
0,0.592340
0,0.580656
0,0.568880
0,0.556912
0,0.544646
0,0.531972
0,0.518783
0,0.504974
0,0.490444
0,0.475100
0,0.458855
0,0.441641
0,0.423405
0,0.404123
0,0.383802
0,0.362495
0,0.340304
0,0.317394
0,0.293997
0,0.270421
0,0.247051
0,0.224350
0,0.202854
0,0.183158
0,0.165902
0,0.151745
0,0.141332
0,0.135259
0,0.134034
0,0.138034
0,0.147472
0,0.162369
0,0.182533
0,0.207564
0,0.236862
0,0.269657
0,0.305051
0,0.342065
0,0.379698
0,0.416982
0,0.453038
0,0.487114
0,0.518626
0,0.547174
0,0.572545
0,0.594706
0,0.613780
0,0.630018
0,0.643758
0,0.655389
0,0.665319
0,0.673937
0,0.681593
0,0.688575
0,0.695103
0,0.701323
0,0.707305
0,0.713055
0,0.718521
0,0.723606
0,0.728185
0,0.732113
0,0.735246
0,0.737449
0,0.738605
0,0.738627
0,0.737458
0,0.735077
0,0.731492
0,0.726740
0,0.720881
0,0.713997
0,0.706178
0,0.697529
0,0.688159
0,0.678185
0,0.667726
0,0.656904
0,0.645841
0,0.634654
0,0.623453
0,0.612333
0,0.601368
0,0.590608
0,0.580070
0,0.569735
0,0.559541
0,0.549383
0,0.539104
0,0.528499
0,0.517312
0,0.505249
0,0.491984
0,0.477186
0,0.460541
0,0.441790
0,0.420765
0,0.397424
0,0.371888
0,0.344470
0,0.315682
0,0.286244
0,0.257062
0,0.229199
0,0.203826
0,0.182154
0,0.165367
0,0.154537
0,0.150549
0,0.154022
0,0.165260
0,0.184209
0,0.210450
0,0.243214
0,0.281431
0,0.323795
0,0.368851
0,0.415084
0,0.461019
0,0.505302
0,0.546778
0,0.584537
0,0.617956
0,0.646701
0,0.670719
0,0.690207
0,0.705568
0,0.717355
0,0.726211
0,0.732809
0,0.737796
0,0.741750
0,0.745136
0,0.748292
0,0.751412
0,0.754554
0,0.757658
0,0.760563
0,0.763045
0,0.764844
0,0.765697
0,0.765362
0,0.763642
0,0.760391
0,0.755531
0,0.749044
0,0.740972
0,0.731410
0,0.720491
0,0.708383
0,0.695270
0,0.681345
0,0.666803
0,0.651831
0,0.636608
0,0.621299
0,0.606052
0,0.590994
0,0.576229
0,0.561834
0,0.547856
0,0.534304
0,0.521155
0,0.508350
0,0.495798
0,0.483379
0,0.470952
0,0.458359
0,0.445435
0,0.432009
0,0.417913
0,0.402992
0,0.387105
0,0.370142
0,0.352035
0,0.332773
0,0.312422
0,0.291142
0,0.269207
0,0.247010
0,0.225075
0,0.204043
0,0.184657
0,0.167728
0,0.154095
0,0.144570
0,0.139880
0,0.140613
0,0.147162
0,0.159688
0,0.178091
0,0.202012
0,0.230844
0,0.263774
0,0.299836
0,0.337973
0,0.377111
0,0.416220
0,0.454370
0,0.490777
0,0.524833
0,0.556111
0,0.584370
0,0.609534
0,0.631673
0,0.650970
0,0.667686
0,0.682130
0,0.694623
0,0.705476
0,0.714965
0,0.723312
0,0.730682
0,0.737172
0,0.742818
0,0.747598
0,0.751447
0,0.754265
0,0.755939
0,0.756352
0,0.755400
0,0.753008
0,0.749134
0,0.743785
0,0.737019
0,0.728949
0,0.719742
0,0.709614
0,0.698818
0,0.687628
0,0.676318
0,0.665141
0,0.654307
0,0.643968
0,0.634200
0,0.625004
0,0.616304
0,0.607964
0,0.599797
0,0.591594
0,0.583138
0,0.574231
0,0.564705
0,0.554436
0,0.543350
0,0.531417
0,0.518644
0,0.505069
0,0.490739
0,0.475703
0,0.459997
0,0.443636
0,0.426615
0,0.408905
0,0.390472
0,0.371284
0,0.351343
0,0.330700
0,0.309490
0,0.287950
0,0.266438
0,0.245435
0,0.225548
0,0.207480
0,0.192005
0,0.179919
0,0.171989
0,0.168893
0,0.171172
0,0.179174
0,0.193028
0,0.212620
0,0.237592
0,0.267364
0,0.301168
0,0.338091
0,0.377132
0,0.417260
0,0.457468
0,0.496822
0,0.534501
0,0.569824
0,0.602271
0,0.631489
0,0.657291
0,0.679645
0,0.698658
0,0.714553
0,0.727639
0,0.738281
0,0.746864
0,0.753766
0,0.759324
0,0.763813
0,0.767436
0,0.770314
0,0.772492
0,0.773952
0,0.774628
0,0.774432
0,0.773272
0,0.771073
0,0.767792
0,0.763423
0,0.758005
0,0.751609
0,0.744336
0,0.736299
0,0.727614
0,0.718382
0,0.708687
0,0.698583
0,0.688093
0,0.677210
0,0.665903
0,0.654119
0,0.641797
0,0.628876
0,0.615304
0,0.601056
0,0.586136
0,0.570591
0,0.554510
0,0.538024
0,0.521302
0,0.504535
0,0.487927
0,0.471667
0,0.455919
0,0.440795
0,0.426343
0,0.412539
0,0.399279
0,0.386381
0,0.373604
0,0.360658
0,0.347235
0,0.333035
0,0.317804
0,0.301363
0,0.283647
0,0.264725
0,0.244828
0,0.224355
0,0.203874
0,0.184104
0,0.165885
0,0.150137
0,0.137801
0,0.129777
0,0.126853
0,0.129644
0,0.138536
0,0.153641
0,0.174777
0,0.201469
0,0.232972
0,0.268317
0,0.306374
0,0.345930
0,0.385769
0,0.424755
0,0.461894
0,0.496396
0,0.527702
0,0.555501
0,0.579718
0,0.600486
0,0.618107
0,0.632999
0,0.645643
0,0.656531
0,0.666128
0,0.674828
0,0.682941
0,0.690677
0,0.698151
0,0.705385
0,0.712332
0,0.718889
0,0.724921
0,0.730281
0,0.734825
0,0.738432
0,0.741008
0,0.742496
0,0.742881
0,0.742182
0,0.740453
0,0.737777
0,0.734255
0,0.729995
0,0.725109
0,0.719700
0,0.713853
0,0.707636
0,0.701096
0,0.694257
0,0.687126
0,0.679697
0,0.671951
0,0.663861
0,0.655396
0,0.646520
0,0.637196
0,0.627386
0,0.617057
0,0.606177
0,0.594719
0,0.582660
0,0.569978
0,0.556645
0,0.542624
0,0.527862
0,0.512291
0,0.495824
0,0.478366
0,0.459821
0,0.440109
0,0.419188
0,0.397074
0,0.373862
0,0.349744
0,0.325028
0,0.300144
0,0.275643
0,0.252196
0,0.230573
0,0.211617
0,0.196205
0,0.185201
0,0.179403
0,0.179474
0,0.185890
0,0.198884
0,0.218406
0,0.244107
0,0.275345
0,0.311215
0,0.350599
0,0.392242
0,0.434833
0,0.477086
0,0.517828
0,0.556056
0,0.590998
0,0.622134
0,0.649210
0,0.672222
0,0.691386
0,0.707092
0,0.719857
0,0.730259
0,0.738886
0,0.746282
0,0.752902
0,0.759080
0,0.765011
0,0.770743
0,0.776188
0,0.781138
0,0.785301
0,0.788331
0,0.789874
0,0.789598
0,0.787235
0,0.782598
0,0.775609
0,0.766295
0,0.754795
0,0.741342
0,0.726243
0,0.709858
0,0.692567
0,0.674745
0,0.656735
0,0.638830
0,0.621262
0,0.604194
0,0.587728
0,0.571911
0,0.556752
0,0.542231
0,0.528322
0,0.514994
0,0.502226
0,0.490005
0,0.478324
0,0.467173
0,0.456532
0,0.446359
0,0.436580
0,0.427083
0,0.417713
0,0.408274
0,0.398539
0,0.388256
0,0.377170
0,0.365039
0,0.351660
0,0.336892
0,0.320679
0,0.303074
0,0.284255
0,0.264545
0,0.244412
0,0.224473
0,0.205475
0,0.188271
0,0.173778
0,0.162925
0,0.156588
0,0.155525
0,0.160310
0,0.171270
0,0.188450
0,0.211582
0,0.240092
0,0.273130
0,0.309617
0,0.348324
0,0.387952
0,0.427224
0,0.464968
0,0.500189
0,0.532123
0,0.560272
0,0.584406
0,0.604558
0,0.620986
0,0.634131
0,0.644562
0,0.652916
0,0.659845
0,0.665960
0,0.671793
0,0.677762
0,0.684159
0,0.691136
0,0.698716
0,0.706801
0,0.715197
0,0.723633
0,0.731794
0,0.739342
0,0.745946
0,0.751305
0,0.755169
0,0.757352
0,0.757748
0,0.756330
0,0.753155
0,0.748352
0,0.742109
0,0.734659
0,0.726259
0,0.717162
0,0.707605
0,0.697784
0,0.687845
0,0.677878
0,0.667916
0,0.657949
0,0.647932
0,0.637807
0,0.627522
0,0.617043
0,0.606366
0,0.595521
0,0.584562
0,0.573557
0,0.562567
0,0.551628
0,0.540724
0,0.529782
0,0.518652
0,0.507115
0,0.494884
0,0.481625
0,0.466977
0,0.450586
0,0.432136
0,0.411391
0,0.388234
0,0.362702
0,0.335022
0,0.305634
0,0.275201
0,0.244604
0,0.214918
0,0.187363
0,0.163245
0,0.143873
0,0.130466
0,0.124064
0,0.125435
0,0.134995
0,0.152755
0,0.178294
0,0.210766
0,0.248945
0,0.291304
0,0.336121
0,0.381606
0,0.426028
0,0.467840
0,0.505778
0,0.538937
0,0.566809
0,0.589282
0,0.606611
0,0.619356
0,0.628304
0,0.634378
0,0.638543
0,0.641727
0,0.644747
0,0.648258
0,0.652717
0,0.658376
0,0.665282
0,0.673299
0,0.682140
0,0.691401
0,0.700611
0,0.709268
0,0.716882
0,0.723011
0,0.727294
0,0.729470
0,0.729391
0,0.727033
0,0.722483
0,0.715929
0,0.707633
0,0.697909
0,0.687084
0,0.675475
0,0.663358
0,0.650950
0,0.638397
0,0.625773
0,0.613086
0,0.600293
0,0.587319
0,0.574080
0,0.560505
0,0.546555
0,0.532240
0,0.517625
0,0.502833
0,0.488035
0,0.473436
0,0.459247
0,0.445665
0,0.432838
0,0.420843
0,0.409662
0,0.399178
0,0.389170
0,0.379331
0,0.369293
0,0.358659
0,0.347052
0,0.334153
0,0.319757
0,0.303805
0,0.286418
0,0.267919
0,0.248831
0,0.229867
0,0.211896
0,0.195898
0,0.182904
0,0.173921
0,0.169862
0,0.171475
0,0.179275
0,0.193495
0,0.214061
0,0.240584
0,0.272378
0,0.308500
0,0.347814
0,0.389066
0,0.430962
0,0.472254
0,0.511808
0,0.548673
0,0.582117
0,0.611658
0,0.637063
0,0.658342
0,0.675718
0,0.689585
0,0.700470
0,0.708976
0,0.715736
0,0.721364
0,0.726418
0,0.731358
0,0.736528
0,0.742138
0,0.748257
0,0.754822
0,0.761650
0,0.768461
0,0.774909
0,0.780612
0,0.785186
0,0.788279
0,0.789597
0,0.788930
0,0.786163
0,0.781285
0,0.774386
0,0.765647
0,0.755321
0,0.743710
0,0.731139
0,0.717927
0,0.704368
0,0.690711
0,0.677142
0,0.663787
0,0.650707
0,0.637909
0,0.625355
0,0.612983
0,0.600717
0,0.588488
0,0.576238
0,0.563929
0,0.551538
0,0.539054
0,0.526462
0,0.513731
0,0.500805
0,0.487588
0,0.473941
0,0.459688
0,0.444623
0,0.428524
0,0.411182
0,0.392425
0,0.372146
0,0.350338
0,0.327113
0,0.302730
0,0.277600
0,0.252289
0,0.227505
0,0.204075
0,0.182901
0,0.164918
0,0.151033
0,0.142067
0,0.138696
0,0.141398
0,0.150412
0,0.165712
0,0.186995
0,0.213694
0,0.245005
0,0.279933
0,0.317349
0,0.356061
0,0.394881
0,0.432694
0,0.468519
0,0.501556
0,0.531223
0,0.557168
0,0.579273
0,0.597634
0,0.612537
0,0.624414
0,0.633799
0,0.641282
0,0.647459
0,0.652893
0,0.658075
0,0.663400
0,0.669146
0,0.675471
0,0.682406
0,0.689871
0,0.697682
0,0.705579
0,0.713244
0,0.720332
0,0.726494
0,0.731402
0,0.734775
0,0.736393
0,0.736111
0,0.733867
0,0.729680
0,0.723643
0,0.715915
0,0.706701
0,0.696235
0,0.684760
0,0.672515
0,0.659719
0,0.646564
0,0.633211
0,0.619792
0,0.606418
0,0.593179
0,0.580153
0,0.567412
0,0.555014
0,0.543009
0,0.531422
0,0.520252
0,0.509457
0,0.498947
0,0.488582
0,0.478165
0,0.467456
0,0.456176
0,0.444029
0,0.430724
0,0.416002
0,0.399660
0,0.381586
0,0.361777
0,0.340365
0,0.317627
0,0.293992
0,0.270033
0,0.246454
0,0.224061
0,0.203729
0,0.186356
0,0.172815
0,0.163905
0,0.160302
0,0.162509
0,0.170824
0,0.185308
0,0.205776
0,0.231795
0,0.262701
0,0.297636
0,0.335590
0,0.375459
0,0.416110
0,0.456440
0,0.495440
0,0.532244
0,0.566165
0,0.596723
0,0.623645
0,0.646864
0,0.666492
0,0.682796
0,0.696152
0,0.707012
0,0.715857
0,0.723164
0,0.729371
0,0.734852
0,0.739900
0,0.744718
0,0.749417
0,0.754019
0,0.758474
0,0.762768
0,0.766802
0,0.770380
0,0.773296
0,0.775347
0,0.776239
0,0.775757
0,0.773785
0,0.770260
0,0.765174
0,0.758577
0,0.750573
0,0.741319
0,0.731013
0,0.719881
0,0.708164
0,0.696099
0,0.683899
0,0.671745
0,0.659760
0,0.648011
0,0.636498
0,0.625160
0,0.613881
0,0.602504
0,0.590848
0,0.578728
0,0.565973
0,0.552442
0,0.538039
0,0.522717
0,0.506477
0,0.489371
0,0.471485
0,0.452927
0,0.433813
0,0.414248
0,0.394318
0,0.374079
0,0.353561
0,0.332776
0,0.311733
0,0.290464
0,0.269051
0,0.247649
0,0.226516
0,0.206021
0,0.186648
0,0.168986
0,0.153698
0,0.141486
0,0.132878
0,0.128357
0,0.128427
0,0.133436
0,0.143536
0,0.158823
0,0.179146
0,0.203997
0,0.232670
0,0.264306
0,0.297952
0,0.332617
0,0.367339
0,0.401241
0,0.433579
0,0.463777
0,0.491451
0,0.516406
0,0.538635
0,0.558291
0,0.575657
0,0.591104
0,0.605051
0,0.617918
0,0.630093
0,0.641897
0,0.653559
0,0.665204
0,0.676848
0,0.688405
0,0.699696
0,0.710471
0,0.720435
0,0.729272
0,0.736671
0,0.742357
0,0.746109
0,0.747780
0,0.747311
0,0.744736
0,0.740181
0,0.733855
0,0.726039
0,0.717056
0,0.707254
0,0.696971
0,0.686514
0,0.676131
0,0.665997
0,0.656206
0,0.646770
0,0.637630
0,0.628671
0,0.619750
0,0.610714
0,0.601424
0,0.591780
0,0.581727
0,0.571263
0,0.560432
0,0.549315
0,0.538005
0,0.526585
0,0.515109
0,0.503576
0,0.491920
0,0.480005
0,0.467628
0,0.454535
0,0.440444
0,0.425080
0,0.408206
0,0.389668
0,0.369437
0,0.347643
0,0.324608
0,0.300859
0,0.277131
0,0.254347
0,0.233580
0,0.215991
0,0.202756
0,0.194976
0,0.193586
0,0.199271
0,0.212394
0,0.232948
0,0.260540
0,0.294405
0,0.333458
0,0.376363
0,0.421638
0,0.467751
0,0.513231
0,0.556759
0,0.597243
0,0.633868
0,0.666117
0,0.693767
0,0.716864
0,0.735674
0,0.750633
0,0.762284
0,0.771214
0,0.778007
0,0.783193
0,0.787216
0,0.790411
0,0.792990
0,0.795042
0,0.796541
0,0.797362
0,0.797308
0,0.796135
0,0.793590
0,0.789437
0,0.783496
0,0.775661
0,0.765921
0,0.754364
0,0.741182
0,0.726653
0,0.711125
0,0.694983
0,0.678622
0,0.662412
0,0.646665
0,0.631614
0,0.617393
0,0.604034
0,0.591472
0,0.579560
0,0.568090
0,0.556827
0,0.545527
0,0.533971
0,0.521984
0,0.509441
0,0.496278
0,0.482482
0,0.468084
0,0.453138
0,0.437704
0,0.421831
0,0.405543
0,0.388835
0,0.371672
0,0.353999
0,0.335650
0,0.316504
0,0.296560
0,0.275898
0,0.254708
0,0.233413
0,0.212547
0,0.192704
0,0.174582
0,0.158955
0,0.146632
0,0.138402
0,0.134981
0,0.136952
0,0.144713
0,0.158430
0,0.178009
0,0.203089
0,0.233049
0,0.267043
0,0.304054
0,0.342957
0,0.382599
0,0.421870
0,0.459775
0,0.495485
0,0.528379
0,0.558063
0,0.584365
0,0.607321
0,0.627138
0,0.644154
0,0.658788
0,0.671493
0,0.682707
0,0.692821
0,0.702147
0,0.710909
0,0.719231
0,0.727155
0,0.734645
0,0.741617
0,0.747953
0,0.753529
0,0.758223
0,0.761933
0,0.764580
0,0.766104
0,0.766466
0,0.765636
0,0.763593
0,0.760316
0,0.755785
0,0.749976
0,0.742873
0,0.734465
0,0.724760
0,0.713790
0,0.701621
0,0.688357
0,0.674145
0,0.659177
0,0.643684
0,0.627927
0,0.612189
0,0.596775
0,0.581948
0,0.567923
0,0.554859
0,0.542835
0,0.531818
0,0.521697
0,0.512259
0,0.503190
0,0.494085
0,0.484473
0,0.473850
0,0.461710
0,0.447590
0,0.431112
0,0.412021
0,0.390225
0,0.365824
0,0.339131
0,0.310680
0,0.281220
0,0.251692
0,0.223190
0,0.196907
0,0.174073
0,0.155873
0,0.143378
0,0.137466
0,0.138756
0,0.147561
0,0.163850
0,0.187246
0,0.217040
0,0.252233
0,0.291596
0,0.333751
0,0.377258
0,0.420707
0,0.462801
0,0.502428
0,0.538718
0,0.571070
0,0.599169
0,0.622964
0,0.642648
0,0.658607
0,0.671367
0,0.681538
0,0.689748
0,0.696593
0,0.702585
0,0.708123
0,0.713461
0,0.718706
0,0.723824
0,0.728655
0,0.732943
0,0.736379
0,0.738631
0,0.739392
0,0.738411
0,0.735517
0,0.730642
0,0.723824
0,0.715203
0,0.705009
0,0.693539
0,0.681139
0,0.668170
0,0.654986
0,0.641914
0,0.629233
0,0.617165
0,0.605864
0,0.595417
0,0.585844
0,0.577099
0,0.569080
0,0.561635
0,0.554577
0,0.547693
0,0.540762
0,0.533566
0,0.525903
0,0.517598
0,0.508504
0,0.498504
0,0.487509
0,0.475452
0,0.462282
0,0.447962
0,0.432466
0,0.415778
0,0.397900
0,0.378859
0,0.358713
0,0.337567
0,0.315581
0,0.292983
0,0.270084
0,0.247283
0,0.225079
0,0.204066
0,0.184935
0,0.168449
0,0.155421
0,0.146674
0,0.142986
0,0.145040
0,0.153356
0,0.168237
0,0.189718
0,0.217532
0,0.251104
0,0.289558
0,0.331765
0,0.376402
0,0.422042
0,0.467249
0,0.510673
0,0.551144
0,0.587740
0,0.619835
0,0.647121
0,0.669595
0,0.687527
0,0.701406
0,0.711872
0,0.719646
0,0.725465
0,0.730015
0,0.733885
0,0.737532
0,0.741260
0,0.745217
0,0.749399
0,0.753678
0,0.757826
0,0.761553
0,0.764546
0,0.766502
0,0.767166
0,0.766351
0,0.763959
0,0.759983
0,0.754510
0,0.747704
0,0.739789
0,0.731025
0,0.721675
0,0.711986
0,0.702157
0,0.692324
0,0.682551
0,0.672825
0,0.663065
0,0.653139
0,0.642887
0,0.632143
0,0.620764
0,0.608650
0,0.595762
0,0.582122
0,0.567817
0,0.552984
0,0.537790
0,0.522407
0,0.506986
0,0.491630
0,0.476376
0,0.461180
0,0.445917
0,0.430387
0,0.414336
0,0.397487
0,0.379574
0,0.360389
0,0.339826
0,0.317914
0,0.294855
0,0.271037
0,0.247040
0,0.223616
0,0.201656
0,0.182139
0,0.166067
0,0.154399
0,0.147973
0,0.147445
0,0.153233
0,0.165482
0,0.184045
0,0.208492
0,0.238134
0,0.272066
0,0.309226
0,0.348461
0,0.388595
0,0.428493
0,0.467124
0,0.503608
0,0.537251
0,0.567567
0,0.594284
0,0.617331
0,0.636824
0,0.653032
0,0.666337
0,0.677199
0,0.686112
0,0.693565
0,0.700011
0,0.705839
0,0.711351
0,0.716753
0,0.722149
0,0.727541
0,0.732844
0,0.737896
0,0.742486
0,0.746371
0,0.749307
0,0.751071
0,0.751485
0,0.750428
0,0.747844
0,0.743745
0,0.738197
0,0.731312
0,0.723226
0,0.714083
0,0.704015
0,0.693133
0,0.681518
0,0.669222
0,0.656274
0,0.642691
0,0.628490
0,0.613708
0,0.598412
0,0.582706
0,0.566740
0,0.550702
0,0.534807
0,0.519278
0,0.504319
0,0.490086
0,0.476661
0,0.464028
0,0.452059
0,0.440515
0,0.429058
0,0.417280
0,0.404741
0,0.391018
0,0.375751
0,0.358691
0,0.339742
0,0.318989
0,0.296716
0,0.273416
0,0.249780
0,0.226669
0,0.205080
0,0.186090
0,0.170787
0,0.160206
0,0.155246
0,0.156605
0,0.164722
0,0.179732
0,0.201453
0,0.229383
0,0.262735
0,0.300489
0,0.341451
0,0.384341
0,0.427868
0,0.470810
0,0.512082
0,0.550787
0,0.586251
0,0.618038
0,0.645940
0,0.669960
0,0.690276
0,0.707191
0,0.721099
0,0.732426
0,0.741603
0,0.749024
0,0.755027
0,0.759880
0,0.763769
0,0.766806
0,0.769033
0,0.770436
0,0.770958
0,0.770523
0,0.769047
0,0.766460
0,0.762715
0,0.757802
0,0.751748
0,0.744619
0,0.736510
0,0.727537
0,0.717824
0,0.707491
0,0.696641
0,0.685351
0,0.673675
0,0.661637
0,0.649242
0,0.636486
0,0.623359
0,0.609863
0,0.596013
0,0.581849
0,0.567431
0,0.552841
0,0.538177
0,0.523545
0,0.509052
0,0.494792
0,0.480840
0,0.467243
0,0.454016
0,0.441137
0,0.428550
0,0.416164
0,0.403860
0,0.391493
0,0.378904
0,0.365925
0,0.352391
0,0.338156
0,0.323107
0,0.307180
0,0.290378
0,0.272792
0,0.254606
0,0.236115
0,0.217724
0,0.199945
0,0.183384
0,0.168716
0,0.156658
0,0.147923
0,0.143178
0,0.142994
0,0.147799
0,0.157836
0,0.173129
0,0.193476
0,0.218439
0,0.247375
0,0.279466
0,0.313773
0,0.349293
0,0.385025
0,0.420029
0,0.453479
0,0.484708
0,0.513234
0,0.538780
0,0.561265
0,0.580795
0,0.597636
0,0.612172
0,0.624869
0,0.636226
0,0.646734
0,0.656833
0,0.666880
0,0.677120
0,0.687674
0,0.698531
0,0.709550
0,0.720483
0,0.730994
0,0.740697
0,0.749193
0,0.756106
0,0.761125
0,0.764028
0,0.764709
0,0.763186
0,0.759594
0,0.754177
0,0.747260
0,0.739214
0,0.730426
